rtime,p1.mean,p1.sys,p1.dia,ecg.hr,spo2.ir_amp,co2.et,co2.fi,co2.rr,aa.mac_sum,t1.temp,ppv,,,
29/05/2009 8:37,28091,28127,28066,75,948,340,0,12,161,3637,157.143,,,
29/05/2009 8:37,28135,28225,27995,75,954,347,0,12,161,3637,156.386,,,Note that these values are 100x the actual value
29/05/2009 8:37,28184,28229,28100,75,969,345,0,12,161,3637,130.973,,,This is how the data came out of the monitor and so the algorithm has been
29/05/2009 8:38,28267,28309,28224,75,959,352,0,12,162,3637,54.867,,,built around these values.
29/05/2009 8:38,28312,28333,28291,75,979,342,0,12,161,3635,54.867,,,
29/05/2009 8:38,28410,28481,28356,75,1141,347,0,12,163,3635,100.529,,,This value is calculated by EDDI so ignore it
29/05/2009 8:38,28461,28496,28410,75,1060,343,0,12,160,3635,152.756,,,
29/05/2009 8:38,28411,28433,28385,75,1365,341,0,12,162,3635,117.895,,,
29/05/2009 8:38,28426,28468,28379,75,1068,341,0,12,162,3635,72.727,,,
29/05/2009 8:39,28470,28485,28456,75,1073,341,0,12,163,3635,62.687,,,
29/05/2009 8:39,28479,28505,28458,75,1071,340,0,12,164,3635,74.419,,,
29/05/2009 8:39,28499,28514,28484,75,1070,339,0,12,165,3633,71.429,,,
29/05/2009 8:39,28471,28498,28447,75,1066,337,0,12,163,3633,112,,,
29/05/2009 8:39,28571,29299,28066,75,1008,343,0,12,162,3633,111.132,,,
29/05/2009 8:39,28027,31054,26019,75,938,350,0,12,163,3631,103.385,,,
29/05/2009 8:40,27026,28331,26723,75,949,351,0,12,161,3633,165.395,,,
29/05/2009 8:40,27641,28374,26964,75,975,354,0,12,162,3631,145.484,,,
29/05/2009 8:40,27645,27733,27506,75,1052,356,0,12,162,3631,126.437,,,
29/05/2009 8:40,27998,28069,27864,75,1026,357,0,12,163,3631,67.742,,,
29/05/2009 8:40,28080,28101,28060,75,1093,355,0,12,163,3631,67.742,,,
29/05/2009 8:40,28435,28583,28321,75,1132,353,0,12,162,3631,161.326,,,
29/05/2009 8:41,29152,29442,28813,75,1166,352,0,12,163,3631,134.311,,,
29/05/2009 8:41,28801,29075,28623,75,1199,353,0,12,162,3628,186.081,,,
29/05/2009 8:41,28257,28724,27865,75,1165,356,0,12,162,3628,191.257,,,
29/05/2009 8:41,29613,31815,28193,75,1187,352,0,12,163,3628,192.793,,,
29/05/2009 8:41,28966,29892,27557,75,1205,355,0,12,163,3628,144.737,,,
29/05/2009 8:41,28798,28839,28718,75,1173,352,0,12,163,3628,159.198,,,
29/05/2009 8:42,28669,29192,28185,75,1210,354,0,12,163,3628,168.377,,,
29/05/2009 8:42,28940,29656,28548,75,1191,353,0,12,163,3628,100.885,,,
29/05/2009 8:42,28778,28797,28759,75,1198,353,0,12,164,3626,87.64,,,
29/05/2009 8:42,28733,28754,28713,75,1234,354,0,12,156,3626,92.105,,,
29/05/2009 8:42,28631,28655,28612,75,1226,348,0,12,150,3626,154.526,,,
29/05/2009 8:42,28619,28631,28510,75,1190,352,0,12,150,3626,94.737,,,
29/05/2009 8:43,28532,28565,28498,75,1302,349,0,12,152,3624,94.737,,,
29/05/2009 8:43,28460,28697,28312,75,226,348,0,12,148,3624,151.402,,,
29/05/2009 8:43,28544,28660,28436,75,157,349,0,12,146,3624,165.957,,,
29/05/2009 8:43,28500,28673,28361,75,1046,348,0,12,148,3624,92.308,,,
29/05/2009 8:43,28444,28471,28416,74,1397,348,0,12,147,3624,94.34,,,
29/05/2009 8:43,28446,28499,28398,74,1083,345,0,12,148,3621,88.968,,,
29/05/2009 8:44,28468,28488,28447,74,322,349,0,12,144,3621,40,,,
29/05/2009 8:44,28405,28435,28379,74,154,346,0,12,145,3621,40,,,
29/05/2009 8:44,28472,28487,28456,74,146,347,0,12,145,3621,72.165,,,
29/05/2009 8:44,28470,28486,28456,73,265,349,0,12,143,3621,59.091,,,
29/05/2009 8:44,28625,30634,26871,72,410,354,0,12,142,3619,165.222,,,
29/05/2009 8:44,29282,31322,27490,72,629,361,0,12,142,3619,151.049,,,
29/05/2009 8:45,3485,8020,1368,72,1344,368,0,12,139,3619,74.675,,,
29/05/2009 8:45,9346,12966,6835,71,708,367,0,12,139,3619,12.694,,,
29/05/2009 8:45,9373,12983,6862,71,1273,365,0,12,139,3617,8.19,,,
29/05/2009 8:45,9268,12913,6781,71,1186,366,0,12,137,3617,7.398,,,
29/05/2009 8:45,9125,12741,6624,71,1228,367,0,12,138,3617,7.305,,,
29/05/2009 8:45,9046,12643,6583,70,1226,368,0,12,135,3617,8.279,,,
29/05/2009 8:46,9085,12712,6555,70,1238,368,0,12,136,3617,21.371,,,
29/05/2009 8:46,9276,13136,6726,70,1230,366,0,12,135,3617,21.371,,,
29/05/2009 8:46,9207,13152,6659,70,1172,363,0,12,134,3615,35.08,,,
29/05/2009 8:46,9004,12638,6509,70,1171,364,0,12,135,3615,21.581,,,
29/05/2009 8:46,9015,13072,6351,69,1256,368,0,12,135,3615,44.849,,,
29/05/2009 8:46,8827,13278,6269,69,1386,368,0,12,133,3612,52.954,,,
29/05/2009 8:47,8824,12484,6264,69,1349,363,0,12,130,3608,12.886,,,
29/05/2009 8:47,8722,12317,6238,68,1367,366,0,12,130,3612,9.412,,,
29/05/2009 8:47,8716,12207,6299,68,1399,363,0,12,133,3612,8.853,,,
29/05/2009 8:47,8737,12233,6294,68,1382,363,0,12,131,3612,8.455,,,
29/05/2009 8:47,8866,12411,6304,68,1344,366,0,12,129,3612,9.747,,,
29/05/2009 8:47,9011,12746,6498,68,1310,361,0,12,130,3612,8.055,,,
29/05/2009 8:48,8932,12643,6466,68,1226,363,0,12,127,3610,7.319,,,
29/05/2009 8:48,8760,12379,6390,68,1183,361,0,12,129,3612,10.556,,,
29/05/2009 8:48,8645,12446,6122,68,1235,363,0,12,129,3612,11.189,,,
29/05/2009 8:48,8623,12024,6299,68,1288,361,0,12,129,3610,13.178,,,
29/05/2009 8:48,8894,12558,6504,68,1252,358,0,12,127,3610,9.623,,,
29/05/2009 8:48,8960,12777,6344,68,1228,364,0,12,127,3610,13.689,,,
29/05/2009 8:49,8911,12694,6514,68,1102,360,0,12,127,3610,8.408,,,
29/05/2009 8:49,8878,12684,6501,68,1124,362,0,12,127,3610,10.288,,,
29/05/2009 8:49,9170,13066,6712,68,1149,358,0,12,127,3610,7.943,,,
29/05/2009 8:49,9049,12911,6608,68,1080,362,0,12,124,3610,8.891,,,
29/05/2009 8:49,8907,12638,6491,68,1007,358,0,12,126,3610,9.367,,,
29/05/2009 8:49,8920,12700,6530,68,1118,365,0,12,125,3610,9.506,,,
29/05/2009 8:50,9057,12896,6661,68,1156,361,0,12,124,3610,10.806,,,
29/05/2009 8:50,8926,12795,6530,68,1053,361,0,12,123,3610,9.484,,,
29/05/2009 8:50,8906,12775,6514,68,1054,361,0,12,124,3610,8.339,,,
29/05/2009 8:50,8909,12780,6496,68,1020,360,0,12,123,3610,11.655,,,
29/05/2009 8:50,8996,12894,6552,68,1069,353,0,12,125,3610,7.887,,,
29/05/2009 8:50,8924,12684,6537,68,1041,361,0,12,123,3608,11.565,,,
29/05/2009 8:51,8960,12694,6572,68,1043,357,0,12,124,3610,8.698,,,
29/05/2009 8:51,8987,12787,6624,68,1075,359,0,12,123,3608,11.03,,,
29/05/2009 8:51,9165,12958,6791,68,1036,357,0,12,120,3610,10.327,,,
29/05/2009 8:51,9204,13097,6757,68,975,357,0,12,121,3608,8.558,,,
29/05/2009 8:51,9222,13167,6763,68,965,354,0,12,121,3608,9.439,,,
29/05/2009 8:51,9018,12763,6619,68,929,358,0,12,121,3608,9.873,,,
29/05/2009 8:52,9048,12837,6655,68,905,358,0,12,119,3608,10.798,,,
29/05/2009 8:52,9309,13103,6857,68,1011,360,0,12,120,3608,10.96,,,
29/05/2009 8:52,9810,13720,7288,69,917,361,0,12,120,3608,51.638,,,
29/05/2009 8:52,10054,14383,7010,71,826,363,0,12,118,3610,108.147,,,
29/05/2009 8:52,-32766,-32766,-32766,72,650,366,0,12,120,3610,72.093,,,
29/05/2009 8:52,-32766,-32766,-32766,73,597,360,0,12,119,3608,81.379,,,
29/05/2009 8:53,-32766,-32766,-32766,74,708,360,0,12,120,3608,189.555,,,
29/05/2009 8:53,28298,28370,28295,74,790,369,0,12,118,3608,190.975,,,
29/05/2009 8:53,10552,14369,7838,74,855,359,0,12,119,3608,123.214,,,
29/05/2009 8:53,11754,14342,10160,74,806,363,0,12,116,3608,182.273,,,
29/05/2009 8:53,4982,14845,3628,74,748,366,0,12,118,3608,185.734,,,
29/05/2009 8:53,10691,15060,7661,74,603,365,0,12,112,3608,52.785,,,
29/05/2009 8:54,10620,14689,7760,73,567,364,0,12,117,3608,7.037,,,
29/05/2009 8:54,10464,14569,7593,72,547,360,0,12,116,3608,7.728,,,
29/05/2009 8:54,10490,14679,7628,72,750,359,0,12,116,3608,9.348,,,
29/05/2009 8:54,10304,14441,7493,71,808,361,0,12,114,3608,8.321,,,
29/05/2009 8:54,10590,14985,7704,71,805,357,0,12,116,3608,6.485,,,
29/05/2009 8:54,10446,14730,7545,71,753,359,0,12,116,3608,7.655,,,
29/05/2009 8:55,10133,14292,7344,70,729,361,0,12,115,3608,6.33,,,
29/05/2009 8:55,10139,14225,7349,70,875,361,0,12,114,3608,10.113,,,
29/05/2009 8:55,10474,14815,7558,69,904,365,0,12,117,3608,7.767,,,
29/05/2009 8:55,10193,14471,7373,69,872,358,0,12,114,3608,8.613,,,
29/05/2009 8:55,10124,14384,7316,69,782,361,0,12,114,3606,9.81,,,
29/05/2009 8:55,10338,14746,7490,68,786,353,0,12,114,3608,8.105,,,
29/05/2009 8:56,10856,15396,7863,68,749,361,0,12,113,3608,8.702,,,
29/05/2009 8:56,10774,15316,7794,68,554,351,0,12,113,3608,9.603,,,
29/05/2009 8:56,10670,15170,7701,68,470,360,0,12,113,3608,9.685,,,
29/05/2009 8:56,10348,14614,7501,68,462,351,0,12,114,3608,10.102,,,
29/05/2009 8:56,10743,15241,7754,68,599,356,0,12,115,3606,8.567,,,
29/05/2009 8:56,10908,15431,7903,68,716,366,0,12,111,3608,7.433,,,
29/05/2009 8:57,10928,15469,7906,68,643,360,0,12,113,3608,7.149,,,
29/05/2009 8:57,10838,15353,7836,68,570,356,0,12,112,3608,5.933,,,
29/05/2009 8:57,10889,15472,7998,68,520,358,0,12,111,3608,7.756,,,
29/05/2009 8:57,11083,15571,8022,68,530,353,0,12,113,3608,7.756,,,
29/05/2009 8:57,11123,15745,8084,68,475,352,0,12,111,3608,10.059,,,
29/05/2009 8:57,11028,15675,7993,68,494,352,0,12,111,3608,7.557,,,
29/05/2009 8:58,10910,15455,7857,68,480,353,0,12,113,3608,9.557,,,
29/05/2009 8:58,10870,15395,7852,68,558,355,0,12,111,3606,7.969,,,
29/05/2009 8:58,10828,15373,7846,67,561,349,0,12,111,3606,8.815,,,
29/05/2009 8:58,10802,15286,7786,67,535,355,0,12,111,3606,8.701,,,
29/05/2009 8:58,10652,15454,7661,66,621,351,0,12,111,3606,8.701,,,
29/05/2009 8:58,10606,15152,7570,66,550,354,0,12,111,3606,9.113,,,
29/05/2009 8:59,10605,15238,7591,66,494,361,0,12,111,3610,6.897,,,
29/05/2009 8:59,10679,15368,7622,65,564,361,0,12,109,3606,7.701,,,
29/05/2009 8:59,10778,15405,7701,66,515,358,0,12,119,3606,7.597,,,
29/05/2009 8:59,10762,15281,7675,66,457,354,0,12,109,3606,6.662,,,
29/05/2009 8:59,10897,15497,7717,66,568,351,0,12,110,3606,6.294,,,
29/05/2009 8:59,10899,15539,7765,66,563,359,0,12,110,3608,6.777,,,
29/05/2009 9:00,10903,15562,7779,67,535,354,0,12,111,3606,6.774,,,
29/05/2009 9:00,10965,15668,7816,67,534,353,0,12,108,3606,6.599,,,
29/05/2009 9:00,10860,15576,7743,67,479,357,0,12,108,3606,6.599,,,
29/05/2009 9:00,10758,15397,7648,67,474,356,0,12,107,3606,6.197,,,
29/05/2009 9:00,10979,15660,7791,67,502,355,0,12,109,3606,6.089,,,
29/05/2009 9:00,10900,15557,7737,67,484,362,0,12,107,3606,6.91,,,
29/05/2009 9:01,10792,15382,7678,67,459,355,0,12,109,3606,6.416,,,
29/05/2009 9:01,10778,15348,7701,67,496,362,0,12,112,3606,8.286,,,
29/05/2009 9:01,10823,15483,7716,67,531,361,0,12,112,3606,6.576,,,
29/05/2009 9:01,10685,15271,7615,67,505,356,0,12,112,3606,7.024,,,
29/05/2009 9:01,10902,15717,7723,67,472,360,0,12,111,3606,7.519,,,
29/05/2009 9:01,10813,15590,7625,66,518,358,0,12,108,3606,6.065,,,
29/05/2009 9:02,10799,15584,7677,66,450,359,0,12,109,3606,6.829,,,
29/05/2009 9:02,10961,15711,7816,66,404,356,0,12,108,3606,6.875,,,
29/05/2009 9:02,11209,15965,8019,66,363,356,0,12,107,3606,5.676,,,
29/05/2009 9:02,11500,16352,8207,67,337,356,0,12,105,3606,5.676,,,
29/05/2009 9:02,11595,16446,8241,67,317,351,0,12,107,3606,5.851,,,
29/05/2009 9:02,11712,16687,8307,67,329,353,0,12,109,3606,6.532,,,
29/05/2009 9:03,11801,16759,8372,67,321,357,0,12,107,3606,4.805,,,
29/05/2009 9:03,11980,17014,8512,67,316,352,0,12,108,3606,4.5,,,
29/05/2009 9:03,11752,16764,8360,67,296,348,0,12,107,3606,4.379,,,
29/05/2009 9:03,11514,16557,8160,67,269,354,0,12,105,3606,5.554,,,
29/05/2009 9:03,11686,16580,8297,67,283,353,0,12,107,3606,6.669,,,
29/05/2009 9:03,12066,16910,8574,67,271,352,0,12,107,3606,6.457,,,
29/05/2009 9:04,11857,16989,8400,67,271,354,0,12,108,3606,5.494,,,
29/05/2009 9:04,11977,16996,8468,66,298,352,0,12,108,3606,6.118,,,
29/05/2009 9:04,11719,16712,8262,65,289,352,0,12,106,3606,6.082,,,
29/05/2009 9:04,11533,16544,8128,66,299,347,0,12,107,3606,6.462,,,
29/05/2009 9:04,11475,16375,8149,65,281,351,0,12,108,3606,7.828,,,
29/05/2009 9:04,11528,16441,8153,65,282,345,0,12,107,3606,6.131,,,
29/05/2009 9:05,11654,16574,8259,66,284,350,0,12,106,3606,6.041,,,
29/05/2009 9:05,11666,16667,8259,66,288,345,0,12,108,3608,6.041,,,
29/05/2009 9:05,11207,16273,7841,64,294,350,0,12,108,3608,5.964,,,
29/05/2009 9:05,10841,15828,7595,63,297,349,0,12,107,3608,5.596,,,
29/05/2009 9:05,11200,16036,7951,64,276,350,0,12,105,3608,7.088,,,
29/05/2009 9:05,11163,16166,7859,64,257,349,0,12,106,3608,5.518,,,
29/05/2009 9:06,11344,16160,8048,64,304,343,0,12,107,3608,6.661,,,
29/05/2009 9:06,11421,16376,8083,64,315,346,0,12,107,3608,5.829,,,
29/05/2009 9:06,11359,16315,8081,64,303,342,0,12,107,3608,6.743,,,
29/05/2009 9:06,11240,16126,7955,64,305,345,0,12,105,3608,6.845,,,
29/05/2009 9:06,11412,16354,8096,64,291,343,0,12,108,3608,6.1,,,
29/05/2009 9:06,11174,16201,7810,63,291,349,0,12,106,3608,5.246,,,
29/05/2009 9:07,11231,16186,7950,64,286,347,0,12,106,3608,5.753,,,
29/05/2009 9:07,11068,16126,7756,63,265,346,0,12,106,3608,6.557,,,
29/05/2009 9:07,10520,15305,7383,63,290,343,0,12,104,3610,5.099,,,
29/05/2009 9:07,10602,15359,7459,63,271,348,0,12,106,3608,5.325,,,
29/05/2009 9:07,10768,15536,7620,63,248,347,0,12,108,3615,5.997,,,
29/05/2009 9:07,10951,15736,7765,64,252,349,0,12,106,3608,5.013,,,
29/05/2009 9:08,10836,15585,7701,64,260,343,0,12,105,3610,5.013,,,
29/05/2009 9:08,10731,15344,7615,64,265,340,0,12,105,3610,7.365,,,
29/05/2009 9:08,11108,15535,7993,65,325,345,0,12,104,3610,7.594,,,
29/05/2009 9:08,11116,15831,7921,65,354,344,0,12,106,3610,6.135,,,
29/05/2009 9:08,11148,15828,7968,64,448,341,0,12,107,3610,5.626,,,
29/05/2009 9:08,11264,15852,8056,64,449,339,0,12,106,3610,6.189,,,
29/05/2009 9:09,11236,15900,8043,64,496,331,0,12,105,3610,7.066,,,
29/05/2009 9:09,11469,16070,8268,65,601,329,0,12,107,3610,6.101,,,
29/05/2009 9:09,11675,16464,8419,65,652,347,0,12,105,3610,5.215,,,
29/05/2009 9:09,11856,16679,8516,65,711,335,0,12,107,3610,5.215,,,
29/05/2009 9:09,11977,16907,8645,65,773,328,0,12,108,3612,5.249,,,
29/05/2009 9:09,11848,16848,8471,64,753,330,0,12,106,3610,5.62,,,
29/05/2009 9:10,11713,16687,8352,64,751,331,0,12,106,3612,6.696,,,
29/05/2009 9:10,11930,16801,8551,65,674,334,0,12,105,3612,6.305,,,
29/05/2009 9:10,11940,16903,8530,65,528,324,0,12,103,3612,7.625,,,
29/05/2009 9:10,12011,16956,8583,65,521,324,0,12,102,3612,6.945,,,
29/05/2009 9:10,12025,17140,8563,65,560,333,0,12,104,3612,6.365,,,
29/05/2009 9:10,12070,17057,8504,65,548,336,0,12,104,3612,6.365,,,
29/05/2009 9:11,11877,17026,8389,66,512,336,0,12,105,3612,8.377,,,
29/05/2009 9:11,11898,17054,8275,66,489,335,0,12,105,3612,5.139,,,
29/05/2009 9:11,11788,16796,8303,66,466,338,0,12,107,3612,6.318,,,
29/05/2009 9:11,11791,16797,8341,67,440,337,0,12,105,3612,5.148,,,
29/05/2009 9:11,11779,16702,8291,67,419,336,0,12,106,3612,5.924,,,
29/05/2009 9:11,11798,16756,8286,67,396,341,0,12,105,3612,6.075,,,
29/05/2009 9:12,11599,16610,8196,67,371,334,0,12,107,3612,6.11,,,
29/05/2009 9:12,11479,16361,8115,67,362,342,0,12,107,3612,7.487,,,
29/05/2009 9:12,11287,16001,8081,67,363,338,0,12,104,3612,7.279,,,
29/05/2009 9:12,11274,16049,7994,67,367,330,0,12,108,3612,7.153,,,
29/05/2009 9:12,10699,15737,7550,66,396,328,0,12,106,3612,7.501,,,
29/05/2009 9:12,10234,15028,7147,63,370,339,0,12,107,3612,5.796,,,
29/05/2009 9:13,9994,14645,7085,63,320,330,0,12,108,3612,7.083,,,
29/05/2009 9:13,10219,14782,7301,63,311,336,0,12,106,3615,7.952,,,
29/05/2009 9:13,10411,14981,7452,64,305,337,0,12,107,3615,6.788,,,
29/05/2009 9:13,10599,15197,7566,64,286,337,0,12,108,3615,6.458,,,
29/05/2009 9:13,10730,15341,7679,65,281,332,0,12,105,3612,8.527,,,
29/05/2009 9:13,10811,15437,7714,66,273,328,0,12,107,3615,7,,,
29/05/2009 9:14,10816,15412,7774,66,266,328,0,12,107,3615,7.342,,,
29/05/2009 9:14,10773,15365,7742,67,264,332,0,12,107,3615,7.951,,,
29/05/2009 9:14,10785,15303,7744,67,265,327,0,12,108,3615,7.363,,,
29/05/2009 9:14,10748,15261,7725,68,276,329,0,12,105,3615,7.767,,,
29/05/2009 9:14,10749,15259,7734,69,279,337,0,12,109,3615,8.649,,,
29/05/2009 9:14,10712,15159,7708,69,276,327,0,12,110,3615,8.949,,,
29/05/2009 9:15,10707,15134,7702,69,280,322,0,12,108,3615,8.3,,,
29/05/2009 9:15,10627,15034,7653,70,291,325,0,12,105,3615,8.3,,,
29/05/2009 9:15,10557,15015,7603,70,311,326,0,12,106,3615,7.642,,,
29/05/2009 9:15,10422,14766,7532,71,319,328,0,12,104,3615,7.41,,,
29/05/2009 9:15,10446,14854,7520,71,314,326,0,12,105,3615,7.287,,,
29/05/2009 9:15,10456,14881,7495,71,329,329,0,12,107,3615,6.908,,,
29/05/2009 9:16,10320,14676,7407,71,351,327,0,12,107,3615,7.126,,,
29/05/2009 9:16,10248,14553,7395,71,350,326,0,12,105,3615,7.325,,,
29/05/2009 9:16,10189,14451,7347,71,338,327,0,12,105,3615,9.529,,,
29/05/2009 9:16,9965,14139,7246,71,322,323,0,12,105,3615,9.425,,,
29/05/2009 9:16,10023,14172,7305,71,302,325,0,12,105,3615,9.644,,,
29/05/2009 9:16,10068,14302,7298,72,292,331,0,12,105,3617,9.906,,,
29/05/2009 9:17,9808,13967,7149,72,293,330,0,12,105,3615,8.95,,,
29/05/2009 9:17,9738,13812,7099,72,298,327,0,12,105,3617,10.583,,,
29/05/2009 9:17,9590,13640,7005,72,298,325,0,12,104,3615,9.793,,,
29/05/2009 9:17,9417,13348,6925,72,304,326,0,12,105,3615,12.159,,,
29/05/2009 9:17,9377,13279,6899,72,297,325,0,12,104,3615,9.694,,,
29/05/2009 9:17,9319,13212,6827,73,308,318,0,12,104,3615,11.516,,,
29/05/2009 9:18,9064,12849,6711,73,317,322,0,12,102,3615,12.777,,,
29/05/2009 9:18,8973,12770,6663,73,302,322,0,12,100,3615,12.777,,,
29/05/2009 9:18,8778,12318,6535,73,302,316,0,12,103,3615,13.417,,,
29/05/2009 9:18,8651,12164,6473,73,313,319,0,12,105,3617,15.186,,,
29/05/2009 9:18,8877,12499,6571,73,311,323,0,12,103,3617,11.572,,,
29/05/2009 9:18,8678,12211,6485,73,313,318,0,12,106,3617,15.866,,,
29/05/2009 9:19,8313,11598,6289,73,306,319,0,12,104,3617,13.904,,,
29/05/2009 9:19,8258,11476,6248,74,285,315,0,12,104,3617,18.925,,,
29/05/2009 9:19,8049,11213,6116,74,276,315,0,12,108,3617,15.211,,,
29/05/2009 9:19,7920,11039,5986,74,284,311,0,12,105,3617,16.473,,,
29/05/2009 9:19,7797,10725,5955,74,300,318,0,12,106,3617,15.909,,,
29/05/2009 9:19,7880,10898,5970,74,324,311,0,12,104,3617,17.181,,,
29/05/2009 9:20,7686,10589,5880,74,345,315,0,12,105,3617,16.639,,,
29/05/2009 9:20,7610,10413,5806,74,339,307,0,12,104,3617,18.155,,,
29/05/2009 9:20,7410,10144,5735,74,347,312,0,12,105,3617,18.737,,,
29/05/2009 9:20,7232,9817,5584,74,348,305,0,12,105,3617,18.737,,,
29/05/2009 9:20,7225,9810,5586,74,344,312,0,12,104,3617,18.51,,,
29/05/2009 9:20,7352,10040,5660,74,365,307,0,12,105,3617,19.479,,,
29/05/2009 9:21,7253,9918,5573,74,403,311,0,12,106,3617,17.396,,,
29/05/2009 9:21,7135,9633,5523,74,384,305,0,12,106,3617,22.494,,,
29/05/2009 9:21,7096,9611,5471,74,347,308,0,12,106,3617,15.742,,,
29/05/2009 9:21,6976,9378,5418,74,355,310,0,12,104,3617,19.501,,,
29/05/2009 9:21,6974,9364,5419,74,387,306,0,12,103,3617,18.983,,,
29/05/2009 9:21,6946,9377,5419,74,380,310,0,12,106,3617,21.45,,,
29/05/2009 9:22,6854,9150,5355,74,359,302,0,12,104,3617,21.457,,,
29/05/2009 9:22,6668,8936,5257,74,349,305,0,12,106,3617,21.502,,,
29/05/2009 9:22,6614,8753,5200,74,353,298,0,12,106,3617,22.175,,,
29/05/2009 9:22,6506,8591,5140,74,387,303,0,12,108,3617,23.767,,,
29/05/2009 9:22,6458,8469,5106,74,419,299,0,12,109,3617,23.398,,,
29/05/2009 9:22,6404,8467,5049,74,442,303,0,12,107,3617,21.953,,,
29/05/2009 9:23,6335,8325,5034,74,461,301,0,12,106,3617,24.968,,,
29/05/2009 9:23,6464,8481,5104,74,457,297,0,12,109,3617,24.836,,,
29/05/2009 9:23,6348,8407,5027,74,434,302,0,12,106,3617,19.509,,,
29/05/2009 9:23,6349,8333,5030,74,429,300,0,12,105,3617,22.266,,,
29/05/2009 9:23,6255,8164,5012,74,457,298,0,12,107,3617,22.767,,,
29/05/2009 9:23,6395,8378,5055,74,477,297,0,12,105,3617,23.17,,,
29/05/2009 9:24,6178,8042,4936,74,487,299,0,12,106,3617,22.007,,,
29/05/2009 9:24,6207,8045,4957,74,501,293,0,12,105,3617,26.922,,,
29/05/2009 9:24,6260,8158,5030,74,488,299,0,12,106,3617,23.945,,,
29/05/2009 9:24,6347,8223,5080,74,476,292,0,12,107,3617,27.495,,,
29/05/2009 9:24,7396,9489,5989,74,478,297,0,12,107,3617,28.825,,,
29/05/2009 9:24,9250,11988,7477,74,463,295,0,12,106,3617,21.734,,,
29/05/2009 9:25,10298,13711,8192,73,395,299,0,12,105,3617,15.637,,,
29/05/2009 9:25,10564,14195,8294,72,331,304,0,12,107,3617,13.808,,,
29/05/2009 9:25,10517,14355,8166,71,274,307,0,12,103,3617,10.571,,,
29/05/2009 9:25,10594,14560,8089,70,263,300,0,12,107,3617,10.423,,,
29/05/2009 9:25,10638,14710,8021,69,279,311,0,12,108,3619,10.491,,,
29/05/2009 9:25,10716,14955,8070,68,276,311,0,12,108,3619,10.491,,,
29/05/2009 9:26,10247,14367,7716,68,271,311,0,12,108,3619,10.09,,,
29/05/2009 9:26,10450,14465,7904,68,265,313,0,12,109,3619,11.338,,,
29/05/2009 9:26,10253,14300,7682,68,257,310,0,12,110,3619,9.585,,,
29/05/2009 9:26,10010,13973,7563,68,251,314,0,12,110,3619,11.846,,,
29/05/2009 9:26,10050,14068,7527,68,242,308,0,12,111,3619,10.644,,,
29/05/2009 9:26,10108,14136,7609,68,240,317,0,12,110,3619,10.644,,,
29/05/2009 9:27,9898,13819,7487,68,246,307,0,12,111,3619,11.845,,,
29/05/2009 9:27,9962,13880,7521,68,245,314,0,12,110,3619,12.992,,,
29/05/2009 9:27,9690,13543,7327,68,233,305,0,12,109,3619,12.992,,,
29/05/2009 9:27,9549,13309,7251,68,229,309,0,12,110,3619,13.483,,,
29/05/2009 9:27,9612,13375,7286,68,217,311,0,12,109,3619,13.662,,,
29/05/2009 9:27,9668,13454,7304,69,218,315,0,12,110,3619,18.205,,,
29/05/2009 9:28,9659,13408,7332,70,216,303,0,12,110,3619,16.211,,,
29/05/2009 9:28,9242,12808,7024,69,208,302,0,12,109,3619,12.991,,,
29/05/2009 9:28,9193,12757,7007,69,202,306,0,12,108,3617,14.628,,,
29/05/2009 9:28,9021,12465,6921,69,220,303,0,12,111,3617,14.239,,,
29/05/2009 9:28,9290,12833,7080,69,223,303,0,12,111,3619,14.557,,,
29/05/2009 9:28,9289,12873,7034,69,233,299,0,12,110,3617,11.948,,,
29/05/2009 9:29,9022,12451,6871,69,229,302,0,12,109,3617,14.119,,,
29/05/2009 9:29,9038,12531,6887,69,223,304,0,12,111,3617,15.545,,,
29/05/2009 9:29,8831,12189,6764,69,222,304,0,12,110,3617,18.15,,,
29/05/2009 9:29,8631,11835,6641,69,225,298,0,12,112,3619,16.985,,,
29/05/2009 9:29,8682,11848,6662,70,217,298,0,12,111,3617,16.563,,,
29/05/2009 9:29,8695,11932,6694,70,214,297,0,12,111,3617,14.846,,,
29/05/2009 9:30,8603,11799,6608,70,211,298,0,12,110,3617,13.552,,,
29/05/2009 9:30,8501,11642,6568,70,209,297,0,12,111,3617,15.738,,,
29/05/2009 9:30,8289,11317,6440,70,205,299,0,12,110,3617,17.898,,,
29/05/2009 9:30,8084,10933,6342,71,209,297,0,12,110,3617,20.098,,,
29/05/2009 9:30,8157,11022,6375,71,212,295,0,12,110,3617,18.164,,,
29/05/2009 9:30,8263,11181,6422,71,216,300,0,12,111,3617,18.689,,,
29/05/2009 9:31,8151,11031,6360,72,223,302,0,12,110,3617,17.546,,,
29/05/2009 9:31,8282,11196,6413,72,207,310,0,11,111,3617,20.227,,,
29/05/2009 9:31,7942,10732,6235,72,204,312,0,11,111,3617,16.73,,,
29/05/2009 9:31,8274,11211,6383,71,223,303,0,11,112,3617,18.992,,,
29/05/2009 9:31,8385,11395,6521,71,241,313,0,10,110,3617,20.096,,,
29/05/2009 9:31,8204,11247,6381,71,249,312,0,10,111,3617,18.515,,,
29/05/2009 9:32,8015,10851,6290,71,243,310,0,10,110,3619,23.366,,,
29/05/2009 9:32,7976,10665,6313,71,224,308,0,10,112,3617,20.174,,,
29/05/2009 9:32,8044,10876,6334,71,212,305,0,10,111,3617,20.29,,,
29/05/2009 9:32,7847,10465,6226,71,202,309,0,10,112,3617,22.823,,,
29/05/2009 9:32,8011,10769,6311,71,208,312,0,10,110,3617,20.408,,,
29/05/2009 9:32,8074,10867,6321,71,216,308,0,10,112,3617,22.909,,,
29/05/2009 9:33,7832,10390,6162,71,226,311,0,10,112,3617,22.208,,,
29/05/2009 9:33,7936,10668,6231,71,228,315,0,10,111,3617,18.855,,,
29/05/2009 9:33,8083,10848,6295,71,245,314,0,10,112,3617,20.799,,,
29/05/2009 9:33,7877,10609,6187,71,249,311,0,10,109,3619,19.537,,,
29/05/2009 9:33,7859,10552,6191,71,243,313,0,10,113,3617,20.393,,,
29/05/2009 9:33,8081,10926,6319,71,234,311,0,10,111,3617,17.462,,,
29/05/2009 9:34,7889,10606,6184,71,228,310,0,10,115,3619,21.513,,,
29/05/2009 9:34,7942,10694,6248,71,221,315,0,10,113,3617,18.65,,,
29/05/2009 9:34,8065,10914,6289,71,230,315,0,10,113,3619,19.956,,,
29/05/2009 9:34,7880,10539,6200,71,235,315,0,10,112,3617,20.523,,,
29/05/2009 9:34,7866,10540,6212,72,237,317,0,10,111,3619,21.921,,,
29/05/2009 9:34,7955,10747,6222,72,234,313,0,10,112,3619,19.395,,,
29/05/2009 9:35,7890,10662,6201,72,230,320,0,10,113,3619,22.799,,,
29/05/2009 9:35,7927,10650,6264,72,228,318,0,10,110,3619,16.845,,,
29/05/2009 9:35,8063,10941,6274,72,234,314,0,10,114,3619,16.193,,,
29/05/2009 9:35,7949,10701,6238,72,255,316,0,10,111,3619,20.542,,,
29/05/2009 9:35,8012,10803,6285,72,265,316,0,10,114,3619,17.347,,,
29/05/2009 9:35,7905,10663,6215,72,251,317,0,10,114,3619,20.482,,,
29/05/2009 9:36,7874,10599,6192,72,251,316,0,10,112,3619,19.514,,,
29/05/2009 9:36,8046,10817,6296,72,239,320,0,10,114,3619,21.377,,,
29/05/2009 9:36,8026,10785,6313,72,239,318,0,10,115,3619,19.488,,,
29/05/2009 9:36,7838,10582,6192,72,237,316,0,10,114,3619,21.566,,,
29/05/2009 9:36,7944,10710,6258,72,236,317,0,10,114,3619,16.334,,,
29/05/2009 9:36,8201,11132,6369,72,234,319,0,10,113,3619,20.347,,,
29/05/2009 9:37,7942,10653,6250,72,247,318,0,10,112,3619,20.302,,,
29/05/2009 9:37,7894,10604,6223,72,247,318,0,10,115,3619,21.336,,,
29/05/2009 9:37,8060,10866,6316,72,247,320,0,10,114,3619,21.086,,,
29/05/2009 9:37,7777,10426,6152,72,234,317,0,10,113,3619,21.461,,,
29/05/2009 9:37,7996,10761,6268,72,230,321,0,10,113,3619,17.887,,,
29/05/2009 9:37,8197,11209,6372,72,253,319,0,10,114,3619,18.54,,,
29/05/2009 9:38,7719,10446,6107,71,267,318,0,10,113,3619,22.135,,,
29/05/2009 9:38,7649,10225,6061,71,247,320,0,10,114,3619,21.376,,,
29/05/2009 9:38,8034,10840,6270,71,249,324,0,10,114,3619,20.263,,,
29/05/2009 9:38,7821,10504,6176,71,252,320,0,10,115,3621,17.764,,,
29/05/2009 9:38,7770,10520,6126,71,247,320,0,10,115,3619,17.142,,,
29/05/2009 9:38,7980,10818,6225,71,247,322,0,10,116,3619,16.718,,,
29/05/2009 9:39,8026,10918,6257,71,270,324,0,10,113,3619,17.231,,,
29/05/2009 9:39,8016,10891,6259,71,263,323,0,10,115,3621,17.66,,,
29/05/2009 9:39,8035,10924,6269,71,257,325,0,10,113,3621,17.207,,,
29/05/2009 9:39,7909,10730,6178,71,245,321,0,10,113,3621,17.613,,,
29/05/2009 9:39,7910,10592,6185,71,243,324,0,10,115,3621,19.556,,,
29/05/2009 9:39,7720,10456,6076,71,255,322,0,10,114,3621,21.202,,,
29/05/2009 9:40,7639,10256,6002,71,254,321,0,10,114,3621,21.757,,,
29/05/2009 9:40,7576,10169,6019,71,245,321,0,10,112,3621,18.496,,,
29/05/2009 9:40,7599,10122,5956,71,268,318,0,10,115,3621,20.998,,,
29/05/2009 9:40,7471,9984,5907,72,268,320,0,10,115,3621,22.259,,,
29/05/2009 9:40,7610,10190,6011,72,238,320,0,10,115,3621,20.707,,,
29/05/2009 9:40,7550,10121,5993,72,241,320,0,10,113,3621,21.391,,,
29/05/2009 9:41,7468,10007,5901,72,249,320,0,10,115,3621,23.6,,,
29/05/2009 9:41,7465,9975,5936,72,246,320,0,10,112,3621,22.131,,,
29/05/2009 9:41,7601,10171,5989,72,249,320,0,10,111,3621,18.487,,,
29/05/2009 9:41,7478,10077,5894,72,252,318,0,10,112,3621,18.487,,,
29/05/2009 9:41,7555,10127,5927,72,258,323,0,10,113,3621,20.179,,,
29/05/2009 9:41,7605,10291,5982,72,264,320,0,10,115,3621,17.519,,,
29/05/2009 9:42,7489,9974,5877,72,278,322,0,10,114,3621,22.365,,,
29/05/2009 9:42,7503,10034,5938,72,263,322,0,10,115,3621,16.862,,,
29/05/2009 9:42,7641,10336,5956,72,256,322,0,10,113,3621,22.4,,,
29/05/2009 9:42,7476,10137,5909,72,247,330,0,10,113,3621,16.563,,,
29/05/2009 9:42,7716,10432,6011,72,253,328,0,10,113,3624,17.696,,,
29/05/2009 9:42,7778,10600,6038,71,286,328,0,10,113,3624,19.564,,,
29/05/2009 9:43,7679,10342,6029,71,297,323,0,10,114,3624,19.408,,,
29/05/2009 9:43,7660,10429,6014,71,264,326,0,10,114,3624,21.545,,,
29/05/2009 9:43,7729,10443,6067,71,257,325,0,10,113,3624,17.865,,,
29/05/2009 9:43,7626,10279,5980,71,256,326,0,10,114,3624,19.253,,,
29/05/2009 9:43,7693,10342,6028,71,255,327,0,10,114,3624,19.363,,,
29/05/2009 9:43,7858,10769,6145,71,278,327,0,10,113,3624,16.675,,,
29/05/2009 9:44,8026,10914,6197,71,290,334,0,10,114,3624,16.675,,,
29/05/2009 9:44,7919,10748,6180,71,267,329,0,10,115,3624,19.572,,,
29/05/2009 9:44,7987,10884,6220,71,260,334,0,10,112,3624,15.963,,,
29/05/2009 9:44,8010,10892,6194,71,271,333,0,10,114,3624,15.963,,,
29/05/2009 9:44,7979,10871,6219,71,257,337,0,10,111,3624,18.259,,,
29/05/2009 9:44,7964,10856,6172,71,260,328,0,10,113,3624,20.198,,,
29/05/2009 9:45,7776,10528,6084,71,284,325,0,10,114,3624,22.913,,,
29/05/2009 9:45,7706,10294,6120,72,287,327,0,10,114,3624,22.268,,,
29/05/2009 9:45,7569,10091,6036,72,260,326,0,10,113,3624,22.591,,,
29/05/2009 9:45,7416,9879,5907,72,245,323,0,10,114,3624,22.627,,,
29/05/2009 9:45,7423,9869,5928,72,251,323,0,10,115,3624,20.91,,,
29/05/2009 9:45,7513,9994,5963,72,256,322,0,10,113,3624,21.767,,,
29/05/2009 9:46,7368,9792,5871,72,264,320,0,10,113,3624,24.349,,,
29/05/2009 9:46,7342,9659,5846,73,251,330,0,10,115,3624,15.576,,,
29/05/2009 9:46,7778,10507,6040,73,256,324,0,10,113,3624,20.777,,,
29/05/2009 9:46,7473,9975,5925,73,296,321,0,10,112,3626,22.457,,,
29/05/2009 9:46,7565,10074,5996,73,270,327,0,10,113,3624,21.964,,,
29/05/2009 9:46,7743,10348,6058,73,234,329,0,10,113,3626,23.456,,,
29/05/2009 9:47,7356,9769,5884,72,232,322,0,10,112,3626,21.11,,,
29/05/2009 9:47,7304,9664,5832,72,242,322,0,10,115,3626,21.11,,,
29/05/2009 9:47,7350,9803,5851,72,250,320,0,10,113,3626,19.458,,,
29/05/2009 9:47,7301,9547,5855,73,252,322,0,10,114,3626,24.185,,,
29/05/2009 9:47,7245,9562,5822,73,245,323,0,10,113,3626,23.219,,,
29/05/2009 9:47,7234,9546,5807,73,223,322,0,10,115,3626,23.772,,,
29/05/2009 9:48,7059,9180,5715,73,226,319,0,10,112,3626,28.37,,,
29/05/2009 9:48,7050,9290,5708,73,252,319,0,10,114,3626,21.281,,,
29/05/2009 9:48,7082,9298,5717,73,257,320,0,10,116,3626,23.045,,,
29/05/2009 9:48,6988,9114,5647,73,251,318,0,10,115,3626,25.034,,,
29/05/2009 9:48,7184,9512,5689,73,240,318,0,10,114,3626,22.386,,,
29/05/2009 9:48,7490,9993,5893,73,254,323,0,10,117,3628,19.915,,,
29/05/2009 9:49,7476,9998,5916,73,301,322,0,10,114,3628,25.502,,,
29/05/2009 9:49,7153,9418,5758,73,265,323,0,10,116,3628,21.477,,,
29/05/2009 9:49,7237,9557,5764,73,235,317,0,10,114,3628,21.775,,,
29/05/2009 9:49,7566,10148,5943,73,250,331,0,10,113,3628,17.614,,,
29/05/2009 9:49,7645,10225,6025,73,286,338,0,10,113,3628,17.692,,,
29/05/2009 9:49,7730,10399,6042,72,335,334,0,10,112,3628,19.466,,,
29/05/2009 9:50,7700,10278,6074,72,332,332,0,10,115,3628,18.514,,,
29/05/2009 9:50,7884,10573,6182,72,295,335,0,10,114,3628,17.945,,,
29/05/2009 9:50,7821,10591,6180,72,278,334,0,10,113,3628,17.945,,,
29/05/2009 9:50,7705,10356,6040,72,290,328,0,10,114,3628,22.553,,,
29/05/2009 9:50,7752,10476,6079,72,288,339,0,10,114,3628,16.406,,,
29/05/2009 9:50,7859,10544,6197,72,278,335,0,10,114,3628,19.451,,,
29/05/2009 9:51,7731,10408,6100,72,278,330,0,10,114,3628,21.738,,,
29/05/2009 9:51,7593,10142,6049,72,262,326,0,10,114,3628,17.915,,,
29/05/2009 9:51,7324,9752,5771,72,251,327,0,10,115,3628,17.915,,,
29/05/2009 9:51,7015,9322,5620,73,244,320,0,10,115,3631,22.774,,,
29/05/2009 9:51,7207,9569,5737,73,251,322,0,10,114,3631,24.26,,,
29/05/2009 9:51,7232,9621,5772,73,258,323,0,10,114,3631,21.508,,,
29/05/2009 9:52,7148,9407,5741,74,265,320,0,10,114,3631,25.736,,,
29/05/2009 9:52,7403,9811,5874,74,253,320,0,10,114,3631,19.106,,,
29/05/2009 9:52,7459,10003,5825,74,241,320,0,10,114,3631,19.106,,,
29/05/2009 9:52,7179,9518,5700,74,267,319,0,10,114,3631,22.804,,,
29/05/2009 9:52,7282,9669,5769,74,297,324,0,10,111,3631,22.618,,,
29/05/2009 9:52,7495,10041,5898,74,300,323,0,10,113,3631,21.19,,,
29/05/2009 9:53,7473,10020,5882,74,287,320,0,10,112,3631,22.024,,,
29/05/2009 9:53,7612,10226,6003,74,279,323,0,10,112,3631,18.705,,,
29/05/2009 9:53,7537,10050,5939,74,267,322,0,10,113,3631,19.733,,,
29/05/2009 9:53,7445,10003,5841,74,255,322,0,10,113,3631,23.976,,,
29/05/2009 9:53,7706,10318,6017,74,270,327,0,10,113,3631,17.62,,,
29/05/2009 9:53,8011,10916,6180,74,305,325,0,10,112,3633,16.129,,,
29/05/2009 9:54,8102,11113,6284,74,301,329,0,10,114,3633,15.037,,,
29/05/2009 9:54,8127,11024,6254,74,270,334,0,10,113,3633,16.172,,,
29/05/2009 9:54,7912,10730,6138,74,263,326,0,10,113,3633,17.676,,,
29/05/2009 9:54,7817,10553,6068,74,301,325,0,10,113,3633,18.792,,,
29/05/2009 9:54,7905,10564,6152,75,298,322,0,10,112,3633,15.69,,,
29/05/2009 9:54,7978,10719,6204,75,296,324,0,10,114,3633,15.69,,,
29/05/2009 9:55,7905,10610,6153,75,315,323,0,10,115,3633,16.445,,,
29/05/2009 9:55,8315,11197,6415,75,285,330,0,10,113,3633,13.265,,,
29/05/2009 9:55,8234,11090,6334,75,267,334,0,10,114,3633,15.846,,,
29/05/2009 9:55,8120,11022,6249,75,267,323,0,10,114,3633,16.032,,,
29/05/2009 9:55,8318,11223,6392,75,274,330,0,10,113,3635,11.082,,,
29/05/2009 9:55,8527,11681,6499,75,269,329,0,10,112,3635,11.082,,,
29/05/2009 9:56,8464,11567,6471,75,282,328,0,10,112,3635,12.117,,,
29/05/2009 9:56,8552,11565,6516,76,291,330,0,10,116,3635,12.223,,,
29/05/2009 9:56,8534,11547,6506,76,260,329,0,10,111,3635,12.223,,,
29/05/2009 9:56,8425,11274,6484,76,272,328,0,10,114,3635,14.695,,,
29/05/2009 9:56,8798,11846,6696,76,308,331,0,10,113,3635,12.397,,,
29/05/2009 9:56,8801,11995,6721,76,285,334,0,10,115,3635,12.073,,,
29/05/2009 9:57,8751,11870,6669,76,293,332,0,10,116,3635,12.044,,,
29/05/2009 9:57,8992,12180,6843,76,308,332,0,10,114,3635,12.898,,,
29/05/2009 9:57,8964,12127,6831,76,292,331,0,10,114,3635,10.869,,,
29/05/2009 9:57,8953,12145,6870,76,297,334,0,10,113,3635,11.485,,,
29/05/2009 9:57,8927,12063,6834,76,299,332,0,10,112,3635,11.064,,,
29/05/2009 9:57,9137,12291,6966,76,302,331,0,10,113,3635,10.088,,,
29/05/2009 9:58,9125,12402,6975,76,303,334,0,10,112,3635,10.935,,,
29/05/2009 9:58,9036,12272,6913,76,287,332,0,10,114,3635,11.958,,,
29/05/2009 9:58,9107,12383,6933,76,285,333,0,10,112,3635,13.57,,,
29/05/2009 9:58,8952,12228,6844,76,275,333,0,10,114,3635,13.843,,,
29/05/2009 9:58,8838,11936,6767,76,265,334,0,10,115,3637,11.708,,,
29/05/2009 9:58,8924,12227,6758,77,266,329,0,10,113,3635,11.708,,,
29/05/2009 9:59,8896,12129,6727,77,259,331,0,10,114,3637,13.157,,,
29/05/2009 9:59,8885,12090,6790,77,257,331,0,10,114,3637,11.105,,,
29/05/2009 9:59,8819,12011,6754,77,246,332,0,10,112,3637,11.717,,,
29/05/2009 9:59,8549,11564,6593,77,247,331,0,10,112,3637,15.061,,,
29/05/2009 9:59,8684,11713,6685,77,252,333,0,10,115,3637,13.226,,,
29/05/2009 9:59,8680,11681,6675,77,255,337,0,10,117,3637,14.347,,,
29/05/2009 10:00,8702,11725,6726,77,267,338,0,10,117,3637,13.151,,,
29/05/2009 10:00,8582,11474,6681,77,241,333,0,10,117,3637,17.582,,,
29/05/2009 10:00,8231,11004,6503,77,235,332,0,10,115,3637,15.912,,,
29/05/2009 10:00,8136,10842,6403,77,240,336,0,10,110,3637,16.745,,,
29/05/2009 10:00,8325,11010,6550,77,252,329,0,10,113,3637,15.444,,,
29/05/2009 10:00,8296,11020,6499,77,264,330,0,10,112,3637,17.518,,,
29/05/2009 10:01,8119,10762,6419,77,272,332,0,10,113,3637,16.053,,,
29/05/2009 10:01,8020,10626,6407,77,248,330,0,10,114,3637,18.704,,,
29/05/2009 10:01,7880,10385,6244,77,244,334,0,10,112,3637,19.987,,,
29/05/2009 10:01,7481,9730,6009,77,255,325,0,10,115,3637,18.365,,,
29/05/2009 10:01,7635,9901,6153,77,267,337,0,10,114,3637,26.591,,,
29/05/2009 10:01,7457,9619,6051,77,262,323,0,10,114,3637,27.897,,,
29/05/2009 10:02,6997,8897,5755,77,260,319,0,10,112,3637,32.647,,,
29/05/2009 10:02,6671,8292,5590,77,251,317,0,10,114,3637,30.873,,,
29/05/2009 10:02,6582,8080,5535,78,254,316,0,10,114,3637,37.102,,,
29/05/2009 10:02,6242,7563,5317,79,279,313,0,10,114,3637,37.531,,,
29/05/2009 10:02,5934,7148,5051,79,269,311,0,10,114,3640,180.779,,,
29/05/2009 10:02,5707,6922,4846,79,271,308,0,10,113,3637,41.191,,,
29/05/2009 10:03,5525,6581,4710,79,310,310,0,10,116,3640,37.373,,,
29/05/2009 10:03,5491,6530,4657,79,355,310,0,10,113,3640,82.895,,,
29/05/2009 10:03,6302,7553,5482,79,279,303,0,10,114,3640,153.721,,,
29/05/2009 10:03,7245,8635,6223,79,297,309,0,10,114,3640,39.476,,,
29/05/2009 10:03,8368,10295,7095,79,297,314,0,10,115,3640,24.793,,,
29/05/2009 10:03,8718,10863,7333,79,196,323,0,10,114,3640,21.445,,,
29/05/2009 10:04,8663,10902,7247,79,229,321,0,10,114,3640,22.802,,,
29/05/2009 10:04,9004,11566,7411,79,212,331,0,10,113,3640,18.062,,,
29/05/2009 10:04,8860,11487,7226,78,227,325,0,10,115,3640,17.88,,,
29/05/2009 10:04,8581,11125,6979,77,259,328,0,10,115,3642,20.376,,,
29/05/2009 10:04,8663,11171,6985,77,258,328,0,10,113,3640,18.295,,,
29/05/2009 10:04,8725,11316,7076,77,261,331,0,10,114,3642,17.762,,,
29/05/2009 10:05,8686,11266,7073,77,255,327,0,10,112,3642,20.952,,,
29/05/2009 10:05,8842,11541,7103,77,250,326,0,10,115,3642,16.691,,,
29/05/2009 10:05,8914,11816,7082,77,240,331,0,10,114,3642,15.777,,,
29/05/2009 10:05,9038,12018,7132,77,265,336,0,10,112,3642,15.194,,,
29/05/2009 10:05,9225,12240,7352,76,258,334,0,10,112,3642,15.804,,,
29/05/2009 10:05,9379,12472,7426,76,248,334,0,10,115,3642,15.61,,,
29/05/2009 10:06,9263,12281,7400,76,243,329,0,10,113,3642,14.993,,,
29/05/2009 10:06,9120,12024,7324,76,237,333,0,10,114,3642,17.947,,,
29/05/2009 10:06,9393,12519,7424,76,240,333,0,10,115,3642,15.97,,,
29/05/2009 10:06,9375,12457,7424,76,259,333,0,10,112,3644,17.384,,,
29/05/2009 10:06,9279,12263,7394,76,246,331,0,10,115,3644,14.351,,,
29/05/2009 10:06,9448,12581,7476,76,259,328,0,10,114,3644,14.168,,,
29/05/2009 10:07,9299,12259,7345,76,282,328,0,10,115,3644,19.112,,,
29/05/2009 10:07,9068,11927,7279,76,259,330,0,10,115,3644,18.134,,,
29/05/2009 10:07,9184,12036,7397,76,234,325,0,10,116,3644,18.603,,,
29/05/2009 10:07,8987,11596,7242,76,233,324,0,10,113,3644,22.09,,,
29/05/2009 10:07,8885,11547,7215,76,224,321,0,10,114,3644,15.861,,,
29/05/2009 10:07,9072,11966,7216,77,227,326,0,10,115,3644,16.76,,,
29/05/2009 10:08,8779,11519,7072,77,238,333,0,10,113,3644,21.033,,,
29/05/2009 10:08,8410,10951,6809,77,213,332,0,10,114,3644,21.8,,,
29/05/2009 10:08,8589,11263,6929,78,198,329,0,10,112,3644,22.852,,,
29/05/2009 10:08,8874,11610,7106,79,221,330,0,10,111,3646,19.831,,,
29/05/2009 10:08,8600,11116,6969,78,219,325,0,10,110,3646,20.794,,,
29/05/2009 10:08,8483,10991,6902,78,243,327,0,10,112,3646,24.097,,,
29/05/2009 10:09,8537,10984,6944,79,265,328,0,10,111,3646,25.83,,,
29/05/2009 10:09,8479,10757,6914,79,250,327,0,10,115,3646,25.228,,,
29/05/2009 10:09,8081,10324,6700,79,229,324,0,10,112,3646,26.957,,,
29/05/2009 10:09,7966,10117,6577,80,227,325,0,10,116,3646,24.365,,,
29/05/2009 10:09,8150,10370,6658,80,239,328,0,10,115,3646,23.78,,,
29/05/2009 10:09,8115,10294,6674,80,273,327,0,10,114,3646,22.001,,,
29/05/2009 10:10,7651,9590,6396,80,295,326,0,10,114,3646,24.86,,,
29/05/2009 10:10,7744,9670,6451,80,258,327,0,10,116,3646,24.86,,,
29/05/2009 10:10,7617,9494,6385,80,257,326,0,10,114,3646,23.145,,,
29/05/2009 10:10,7390,9149,6240,80,282,326,0,10,112,3646,37.779,,,
29/05/2009 10:10,7187,8812,6082,80,292,321,0,10,114,3649,31.972,,,
29/05/2009 10:10,7287,9033,6158,80,261,321,0,10,115,3649,25.655,,,
29/05/2009 10:11,6953,8492,5912,80,271,321,0,10,114,3649,35.303,,,
29/05/2009 10:11,6717,8083,5758,80,296,323,0,10,112,3649,35.303,,,
29/05/2009 10:11,6831,8158,5833,80,303,320,0,10,115,3649,43.066,,,
29/05/2009 10:11,6546,7963,5595,80,333,318,0,10,112,3649,41.852,,,
29/05/2009 10:11,6329,7430,5437,80,333,317,0,10,113,3649,30.224,,,
29/05/2009 10:11,6462,7724,5539,80,352,319,0,10,114,3649,44.15,,,
29/05/2009 10:12,6370,7535,5473,80,393,319,0,10,114,3649,48.182,,,
29/05/2009 10:12,6504,7665,5595,81,404,324,0,10,115,3649,35.495,,,
29/05/2009 10:12,6489,7649,5633,81,407,318,0,10,114,3649,45.686,,,
29/05/2009 10:12,7341,8543,6434,81,410,313,0,10,115,3649,50.356,,,
29/05/2009 10:12,8898,10747,7684,81,365,321,0,10,113,3651,27.417,,,
29/05/2009 10:12,9944,12549,8352,81,335,324,0,10,114,3649,18.944,,,
29/05/2009 10:13,10155,12977,8460,81,305,329,0,10,116,3651,18.439,,,
29/05/2009 10:13,10314,13271,8523,80,237,326,0,10,116,3651,16.063,,,
29/05/2009 10:13,10479,13672,8550,80,219,330,0,10,113,3651,14.212,,,
29/05/2009 10:13,10584,13941,8544,78,223,336,0,10,115,3651,16.819,,,
29/05/2009 10:13,10574,13939,8501,78,238,331,0,10,112,3651,16.179,,,
29/05/2009 10:13,10729,14336,8587,79,235,336,0,10,113,3651,12.995,,,
29/05/2009 10:14,10874,14592,8625,78,214,336,0,10,114,3651,13.889,,,
29/05/2009 10:14,10772,14486,8543,77,211,337,0,10,117,3651,16.653,,,
29/05/2009 10:14,11001,14886,8588,77,224,339,0,10,113,3651,10.638,,,
29/05/2009 10:14,10875,14698,8622,77,240,339,0,10,113,3651,15.637,,,
29/05/2009 10:14,10753,14400,8568,77,252,337,0,10,115,3653,15.809,,,
29/05/2009 10:14,11127,15092,8703,77,250,338,0,10,113,3653,9.446,,,
29/05/2009 10:15,10925,14847,8555,77,237,337,0,10,115,3653,12.36,,,
29/05/2009 10:15,11088,15078,8646,77,237,337,0,10,112,3653,10.988,,,
29/05/2009 10:15,11293,15388,8765,77,240,339,0,10,116,3653,12.834,,,
29/05/2009 10:15,11120,15178,8697,77,214,340,0,10,115,3653,10.222,,,
29/05/2009 10:15,11193,15327,8674,77,204,338,0,10,113,3653,10.37,,,
29/05/2009 10:15,11376,15671,8735,76,225,343,0,10,113,3653,10.37,,,
29/05/2009 10:16,11361,15640,8767,76,244,342,0,10,116,3653,12.95,,,
29/05/2009 10:16,11343,15617,8678,76,251,349,0,10,111,3653,9.03,,,
29/05/2009 10:16,11469,15819,8761,75,243,341,0,10,115,3655,12.117,,,
29/05/2009 10:16,10973,14987,8527,75,276,340,0,10,113,3653,12.59,,,
29/05/2009 10:16,11077,15183,8577,76,244,343,0,10,114,3653,11.904,,,
29/05/2009 10:16,11148,15300,8609,76,237,339,0,10,112,3655,11.18,,,
29/05/2009 10:17,11021,15062,8535,76,238,351,0,10,114,3655,12.583,,,
29/05/2009 10:17,11054,15101,8545,76,258,338,0,10,115,3655,12.078,,,
29/05/2009 10:17,11129,15220,8590,77,245,339,0,10,114,3655,11.688,,,
29/05/2009 10:17,10999,15006,8540,77,245,340,0,10,116,3655,12.55,,,
29/05/2009 10:17,10921,14871,8462,77,231,338,0,10,116,3655,10.835,,,
29/05/2009 10:17,10804,14825,8338,77,243,337,0,10,113,3655,10.946,,,
29/05/2009 10:18,10783,14689,8380,77,253,336,0,10,111,3655,13.393,,,
29/05/2009 10:18,10454,14097,8229,78,249,335,0,10,115,3655,13.393,,,
29/05/2009 10:18,10101,13591,8019,79,250,336,0,10,112,3655,15.228,,,
29/05/2009 10:18,9755,13013,7764,79,229,332,0,10,114,3655,16.006,,,
29/05/2009 10:18,9903,13119,7810,80,219,336,0,10,114,3655,15.774,,,
29/05/2009 10:18,9593,12921,7688,80,217,333,0,10,115,3655,20.593,,,
29/05/2009 10:19,9440,12556,7555,81,224,330,0,10,113,3657,20.504,,,
29/05/2009 10:19,9239,12330,7424,81,216,329,0,10,115,3655,21.675,,,
29/05/2009 10:19,8991,11866,7193,81,227,330,0,10,116,3655,18.178,,,
29/05/2009 10:19,8760,11527,7085,81,247,334,0,10,117,3657,20.627,,,
29/05/2009 10:19,8712,11374,7011,82,268,332,0,10,115,3657,19.601,,,
29/05/2009 10:19,8839,11700,7070,82,243,331,0,10,115,3657,22.897,,,
29/05/2009 10:20,8511,11053,6837,82,254,330,0,10,114,3657,23.583,,,
29/05/2009 10:20,8455,11049,6837,82,238,333,0,10,116,3657,20.495,,,
29/05/2009 10:20,8489,11166,6812,82,230,332,0,10,116,3657,21.786,,,
29/05/2009 10:20,8109,10513,6589,82,246,329,0,10,113,3657,25.774,,,
29/05/2009 10:20,8251,10850,6676,82,263,329,0,10,116,3657,17.964,,,
29/05/2009 10:20,8340,10987,6679,82,282,330,0,10,112,3657,21.093,,,
29/05/2009 10:21,8138,10658,6555,82,277,333,0,10,114,3657,21.093,,,
29/05/2009 10:21,7874,10262,6418,82,271,328,0,10,112,3657,22.629,,,
29/05/2009 10:21,7932,10297,6439,82,280,329,0,10,115,3657,26.146,,,
29/05/2009 10:21,7749,9976,6338,82,291,324,0,10,116,3660,27.274,,,
29/05/2009 10:21,7617,9737,6264,83,291,327,0,10,114,3660,22.269,,,
29/05/2009 10:21,7738,10047,6328,83,292,330,0,10,115,3660,30.136,,,
29/05/2009 10:22,7419,9446,6133,83,307,321,0,10,115,3660,30.836,,,
29/05/2009 10:22,6986,8742,5923,83,286,316,0,10,115,3660,36.06,,,
29/05/2009 10:22,6829,8485,5769,83,284,316,0,10,116,3660,33.572,,,
29/05/2009 10:22,7035,8782,5863,84,317,321,0,10,116,3660,34.254,,,
29/05/2009 10:22,6810,8391,5727,84,346,315,0,10,115,3662,33.025,,,
29/05/2009 10:22,6496,8054,5478,84,383,314,0,10,115,3660,37.636,,,
29/05/2009 10:23,6493,8049,5432,84,382,313,0,10,116,3662,35.039,,,
29/05/2009 10:23,6455,7895,5406,84,378,314,0,10,115,3662,26.912,,,
29/05/2009 10:23,6855,8535,5719,84,408,318,0,10,117,3662,32.273,,,
29/05/2009 10:23,8554,10691,7216,84,438,317,0,10,116,3662,29.945,,,
29/05/2009 10:23,9659,12396,8095,84,373,320,0,10,116,3662,20.491,,,
29/05/2009 10:23,10167,13190,8310,84,271,324,0,10,113,3662,17.976,,,
29/05/2009 10:24,10557,14039,8517,83,253,332,0,10,114,3662,18.382,,,
29/05/2009 10:24,10728,14357,8534,83,272,338,0,10,116,3664,14.845,,,
29/05/2009 10:24,9897,11840,8524,82,254,336,0,10,114,3664,157.59,,,
29/05/2009 10:24,9977,13888,8147,82,255,338,0,10,116,3664,11.469,,,
29/05/2009 10:24,10664,14889,8297,82,276,339,0,10,116,3664,12.963,,,
29/05/2009 10:24,10758,15043,8273,82,282,341,0,10,113,3664,10.526,,,
29/05/2009 10:25,10557,14816,8099,82,247,336,0,10,114,3664,10.526,,,
29/05/2009 10:25,10411,14617,8032,82,268,338,0,10,115,3664,11.424,,,
29/05/2009 10:25,10600,14980,8039,82,258,340,0,10,114,3664,11.424,,,
29/05/2009 10:25,10478,14747,7974,82,260,337,0,10,116,3664,11.751,,,
29/05/2009 10:25,10640,15067,8068,82,255,341,0,10,115,3666,11.059,,,
29/05/2009 10:25,10639,15096,8038,82,255,341,0,10,115,3666,10.232,,,
29/05/2009 10:26,10505,14910,7966,82,270,341,0,10,115,3666,10.232,,,
29/05/2009 10:26,10651,15088,8067,82,287,339,0,10,115,3666,9.651,,,
29/05/2009 10:26,10735,15153,8050,82,269,339,0,10,112,3666,7.517,,,
29/05/2009 10:26,10747,15275,8083,81,272,348,0,10,111,3666,9.575,,,
29/05/2009 10:26,10634,15016,8033,81,295,339,0,10,111,3666,10.523,,,
29/05/2009 10:26,10553,14932,7963,81,292,339,0,10,110,3666,10.707,,,
29/05/2009 10:27,10460,14797,7840,81,271,345,0,10,110,3666,9.452,,,
29/05/2009 10:27,10576,14928,7889,81,277,347,0,10,110,3666,9.269,,,
29/05/2009 10:27,10585,15050,7902,81,329,344,0,10,109,3669,14.278,,,
29/05/2009 10:27,10101,14300,7595,81,309,345,0,10,112,3669,14.599,,,
29/05/2009 10:27,10061,14184,7665,81,287,341,0,10,111,3669,15.719,,,
29/05/2009 10:27,9461,13267,7291,81,274,342,0,10,110,3669,11.83,,,
29/05/2009 10:28,9385,13191,7277,82,250,336,0,10,109,3669,16.394,,,
29/05/2009 10:28,9228,12913,7153,82,264,336,0,10,109,3669,18.936,,,
29/05/2009 10:28,8991,12605,6972,82,250,337,0,10,108,3669,14.299,,,
29/05/2009 10:28,8618,12049,6752,83,248,333,0,10,111,3669,21.069,,,
29/05/2009 10:28,8651,12145,6676,83,256,334,0,10,110,3669,15.295,,,
29/05/2009 10:28,8649,12102,6653,83,254,337,0,10,109,3669,20.195,,,
29/05/2009 10:29,7947,10953,6239,83,276,332,0,10,111,3669,19.982,,,
29/05/2009 10:29,8118,11321,6351,83,280,332,0,10,111,3669,19.499,,,
29/05/2009 10:29,7820,11119,6205,84,297,331,0,10,109,3669,25.614,,,
29/05/2009 10:29,7510,10317,5898,84,283,329,0,10,110,3671,26.814,,,
29/05/2009 10:29,7685,10671,6016,84,301,330,0,10,108,3671,18.361,,,
29/05/2009 10:29,7671,10639,5971,84,321,334,0,10,109,3671,19.908,,,
29/05/2009 10:30,7167,9759,5695,84,354,330,0,10,109,3671,22.493,,,
29/05/2009 10:30,7143,9729,5677,84,384,329,0,10,108,3671,22.832,,,
29/05/2009 10:30,7254,9939,5690,84,369,329,0,10,109,3671,24.357,,,
29/05/2009 10:30,6842,9321,5483,84,355,327,0,10,109,3671,27.642,,,
29/05/2009 10:30,6783,9205,5452,85,363,328,0,10,108,3671,25.357,,,
29/05/2009 10:30,6712,9148,5365,85,366,329,0,10,107,3671,25.768,,,
29/05/2009 10:31,6524,8862,5278,85,365,327,0,10,106,3671,27.611,,,
29/05/2009 10:31,7634,10118,6096,85,415,327,0,10,109,3671,73.94,,,
29/05/2009 10:31,-32766,-32766,-32766,85,434,324,0,10,107,3671,102.752,,,
29/05/2009 10:31,-32766,-32766,-32766,85,380,321,0,10,108,3673,68.293,,,
29/05/2009 10:31,-32766,-32766,-32766,85,317,326,0,10,109,3673,112.963,,,
29/05/2009 10:31,-32766,-32766,-32766,85,240,333,0,10,110,3673,194.687,,,
29/05/2009 10:32,20539,24329,20052,84,270,340,0,10,107,3673,15.687,,,
29/05/2009 10:32,10213,13757,8032,84,279,342,0,10,109,3673,13.863,,,
29/05/2009 10:32,10226,13956,7977,84,296,347,0,10,107,3673,13.863,,,
29/05/2009 10:32,10446,14192,8044,84,315,346,0,10,107,3673,180.817,,,
29/05/2009 10:32,21722,12569,7636,83,346,353,0,10,106,3673,136.682,,,
29/05/2009 10:32,12820,17217,6604,83,324,359,0,10,107,3673,83.415,,,
29/05/2009 10:33,-32766,-32766,-32766,83,330,354,0,10,105,3673,80.735,,,
29/05/2009 10:33,10642,15097,7950,83,219,354,0,10,106,3676,9.15,,,
29/05/2009 10:33,10552,15021,7867,83,176,354,0,10,106,3676,10.796,,,
29/05/2009 10:33,10557,15066,7833,83,404,355,0,10,107,3676,10.344,,,
29/05/2009 10:33,10656,15378,7868,83,322,357,0,10,106,3676,10.631,,,
29/05/2009 10:33,10345,14799,7655,82,306,358,0,10,105,3676,10.631,,,
29/05/2009 10:34,10210,14676,7630,82,309,358,0,10,104,3676,11.206,,,
29/05/2009 10:34,9873,14271,7380,83,302,352,0,10,104,3676,11.626,,,
29/05/2009 10:34,9524,13963,7160,83,275,354,0,10,106,3676,11.626,,,
29/05/2009 10:34,9476,13741,7104,83,290,353,0,10,105,3676,12.846,,,
29/05/2009 10:34,9409,13240,7161,84,293,357,0,10,105,3676,12.649,,,
29/05/2009 10:34,9160,12875,6991,84,281,356,0,10,105,3676,15.599,,,
29/05/2009 10:35,8747,12293,6761,84,296,351,0,10,105,3676,16.418,,,
29/05/2009 10:35,8883,12421,6820,84,339,354,0,10,105,3678,13.006,,,
29/05/2009 10:35,8874,12691,6722,84,335,357,0,10,104,3676,13.006,,,
29/05/2009 10:35,8696,12377,6612,85,315,353,0,10,105,3676,15.916,,,
29/05/2009 10:35,8623,12265,6537,85,309,353,0,10,105,3676,14.711,,,
29/05/2009 10:35,8622,12228,6523,85,308,356,0,10,105,3678,14.711,,,
29/05/2009 10:36,8482,11946,6443,85,356,354,0,10,104,3676,15.725,,,
29/05/2009 10:36,8336,11613,6416,85,356,353,0,10,106,3676,16.285,,,
29/05/2009 10:36,8324,11653,6410,85,327,354,0,10,106,3678,16.369,,,
29/05/2009 10:36,8267,11506,6340,85,319,355,0,10,104,3678,15.304,,,
29/05/2009 10:36,8302,11522,6373,85,325,359,0,10,104,3678,13.14,,,
29/05/2009 10:36,8335,11578,6364,85,347,360,0,10,104,3678,15.362,,,
29/05/2009 10:37,8173,11305,6312,85,376,354,0,10,103,3678,18.047,,,
29/05/2009 10:37,7996,10930,6247,85,388,353,0,10,105,3678,15.6,,,
29/05/2009 10:37,7885,10758,6187,85,335,354,0,10,105,3680,21.607,,,
29/05/2009 10:37,7765,10410,6126,85,345,355,0,10,103,3678,19.448,,,
29/05/2009 10:37,8212,11001,6394,85,355,358,0,10,105,3678,15.036,,,
29/05/2009 10:37,8199,11018,6411,85,370,359,0,10,104,3678,17.073,,,
29/05/2009 10:38,7949,10668,6209,85,355,356,0,10,104,3678,14.432,,,
29/05/2009 10:38,8110,10868,6396,85,374,362,0,10,103,3678,21.851,,,
29/05/2009 10:38,8015,10436,6424,85,412,357,0,10,103,3678,22.622,,,
29/05/2009 10:38,7450,9488,6114,85,380,352,0,10,105,3678,29.978,,,
29/05/2009 10:38,7279,9053,6043,85,362,347,0,10,104,3678,32.988,,,
29/05/2009 10:38,6833,8345,5760,85,349,347,0,10,106,3680,36.228,,,
29/05/2009 10:39,6465,7687,5525,86,375,341,0,10,105,3678,33.447,,,
29/05/2009 10:39,6526,7698,5579,87,403,340,0,10,103,3678,34.364,,,
29/05/2009 10:39,6392,7459,5473,87,418,342,0,10,102,3680,45.14,,,
29/05/2009 10:39,6031,6904,5224,87,456,337,0,10,104,3680,46.475,,,
29/05/2009 10:39,6072,6834,5273,88,476,341,0,10,102,3680,39.873,,,
29/05/2009 10:39,7389,8372,6493,88,477,339,0,10,104,3680,40.825,,,
29/05/2009 10:40,8331,9662,7304,88,502,341,0,10,103,3680,31.39,,,
29/05/2009 10:40,9225,11103,7903,88,420,347,0,10,103,3680,21.798,,,
29/05/2009 10:40,9624,12010,8007,88,335,349,0,10,104,3680,21.145,,,
29/05/2009 10:40,8896,11101,7435,87,293,355,0,10,103,3680,22.585,,,
29/05/2009 10:40,8636,10595,7253,87,325,354,0,10,102,3680,20.868,,,
29/05/2009 10:40,8580,10653,7139,88,351,353,0,10,104,3680,25.373,,,
29/05/2009 10:41,8107,9866,6793,88,367,353,0,10,103,3682,22.778,,,
29/05/2009 10:41,7884,9572,6640,88,380,352,0,10,104,3680,20.112,,,
29/05/2009 10:41,7757,9535,6454,89,395,357,0,10,105,3682,19.459,,,
29/05/2009 10:41,7675,9400,6411,89,440,359,0,10,103,3682,21.426,,,
29/05/2009 10:41,7814,9586,6460,89,448,364,0,10,105,3682,15.845,,,
29/05/2009 10:41,8031,10008,6566,89,445,372,0,10,101,3682,15.559,,,
29/05/2009 10:42,7829,9578,6439,89,497,382,0,10,102,3682,18.858,,,
29/05/2009 10:42,7922,9833,6489,89,495,380,0,10,101,3682,17.547,,,
29/05/2009 10:42,7944,9868,6526,89,520,384,0,10,103,3682,18.252,,,
29/05/2009 10:42,7996,9906,6553,89,550,389,0,10,103,3682,15.531,,,
29/05/2009 10:42,8094,10092,6615,89,539,389,0,10,102,3685,13.883,,,
29/05/2009 10:42,8291,10345,6736,89,552,386,0,10,102,3682,9.596,,,
29/05/2009 10:43,8501,10725,6878,89,580,382,0,10,101,3685,9.596,,,
29/05/2009 10:43,8638,10977,6913,89,515,382,0,10,102,3682,11.426,,,
29/05/2009 10:43,8426,10696,6762,89,455,395,0,10,101,3685,11.426,,,
29/05/2009 10:43,8202,10322,6604,88,505,397,0,10,102,3682,15.478,,,
29/05/2009 10:43,8460,10773,6746,88,508,401,0,10,105,3682,18.279,,,
29/05/2009 10:43,8420,10909,6626,88,532,406,0,10,105,3682,14.843,,,
29/05/2009 10:44,8102,10485,6413,88,537,403,0,10,105,3682,14.301,,,
29/05/2009 10:44,8431,11095,6594,88,538,398,0,10,105,3685,11.69,,,
29/05/2009 10:44,8467,11191,6609,88,550,389,0,10,100,3682,11.876,,,
29/05/2009 10:44,8597,11467,6721,88,523,387,0,10,100,3682,11.955,,,
29/05/2009 10:44,8575,11416,6709,88,457,385,0,10,97,3682,12.149,,,
29/05/2009 10:44,8586,11500,6637,88,417,384,0,10,98,3682,14.956,,,
29/05/2009 10:45,8427,11242,6513,88,445,382,0,10,97,3682,14.113,,,
29/05/2009 10:45,8390,11074,6533,88,483,385,0,10,99,3682,9.244,,,
29/05/2009 10:45,8568,11297,6704,88,476,384,0,10,100,3682,13.4,,,
29/05/2009 10:45,8468,11168,6667,88,515,379,0,10,102,3682,17.737,,,
29/05/2009 10:45,8347,10922,6603,88,454,382,0,10,101,3682,16.656,,,
29/05/2009 10:45,8437,10960,6693,88,461,390,0,10,100,3682,17.069,,,
29/05/2009 10:46,8276,10904,6557,88,493,374,0,10,101,3682,15.923,,,
29/05/2009 10:46,8288,10832,6542,88,477,382,0,10,100,3682,14.93,,,
29/05/2009 10:46,8193,10813,6481,88,482,377,0,10,99,3682,16.203,,,
29/05/2009 10:46,8190,10724,6489,88,474,379,0,10,102,3682,17.648,,,
29/05/2009 10:46,8436,11075,6640,88,419,392,0,10,100,3682,16.649,,,
29/05/2009 10:46,8233,10840,6514,88,421,389,0,10,101,3682,16.656,,,
29/05/2009 10:47,7986,10336,6357,88,440,384,0,10,99,3685,17.969,,,
29/05/2009 10:47,8324,10718,6513,88,436,387,0,10,100,3682,17.969,,,
29/05/2009 10:47,8462,11185,6608,88,471,388,0,10,101,3685,10.389,,,
29/05/2009 10:47,8396,11009,6619,88,498,391,0,10,99,3682,16.395,,,
29/05/2009 10:47,8730,11544,6786,88,466,402,0,10,99,3682,11.969,,,
29/05/2009 10:47,8730,11601,6783,88,475,388,0,10,98,3685,11.889,,,
29/05/2009 10:48,8812,11724,6802,88,480,388,0,10,101,3685,11.231,,,
29/05/2009 10:48,8974,12050,6902,88,437,392,0,10,99,3685,11.796,,,
29/05/2009 10:48,8996,12157,6888,88,456,391,0,10,98,3685,9.416,,,
29/05/2009 10:48,8839,11963,6784,88,477,390,0,10,98,3685,10.68,,,
29/05/2009 10:48,8940,12197,6825,88,435,390,0,10,97,3682,10.711,,,
29/05/2009 10:48,9150,12481,6887,87,403,391,0,10,100,3682,11.376,,,
29/05/2009 10:49,8865,12140,6742,87,424,388,0,10,99,3685,11.899,,,
29/05/2009 10:49,8912,12147,6800,87,440,391,0,10,100,3685,12.283,,,
29/05/2009 10:49,8912,12073,6786,87,407,390,0,10,98,3682,10.704,,,
29/05/2009 10:49,8777,11912,6709,87,404,393,0,10,99,3682,12.142,,,
29/05/2009 10:49,8768,11912,6703,87,432,390,0,10,98,3682,12.11,,,
29/05/2009 10:49,8969,12205,6828,87,434,390,0,10,98,3682,13.105,,,
29/05/2009 10:50,8930,12162,6807,87,426,389,0,10,100,3685,13.195,,,
29/05/2009 10:50,8871,12169,6786,87,394,390,0,10,98,3685,12.69,,,
29/05/2009 10:50,9154,12648,6911,87,391,390,0,10,98,3682,11.56,,,
29/05/2009 10:50,9267,12879,6937,87,392,392,0,10,100,3685,9.382,,,
29/05/2009 10:50,9442,13068,7084,88,349,396,0,10,99,3685,9.399,,,
29/05/2009 10:50,9338,12935,7025,88,344,393,0,10,98,3685,10.512,,,
29/05/2009 10:51,9237,12786,6959,88,359,392,0,10,98,3685,9.594,,,
29/05/2009 10:51,9408,12988,7115,88,394,392,0,10,98,3685,9.039,,,
29/05/2009 10:51,9598,13278,7234,88,403,394,0,10,98,3685,10.097,,,
29/05/2009 10:51,9870,13718,7403,88,446,393,0,10,98,3685,8.941,,,
29/05/2009 10:51,10140,14108,7560,88,420,395,0,10,98,3685,7.448,,,
29/05/2009 10:51,10154,14116,7587,88,379,391,0,10,100,3685,9.294,,,
29/05/2009 10:52,10199,14153,7643,88,357,391,0,10,98,3685,9.294,,,
29/05/2009 10:52,10492,14611,7808,87,387,394,0,10,100,3685,10.511,,,
29/05/2009 10:52,10583,14761,7905,87,395,391,0,10,98,3685,7.718,,,
29/05/2009 10:52,10667,14914,7947,87,371,391,0,10,98,3685,8.23,,,
29/05/2009 10:52,11080,15546,8178,87,329,392,0,10,98,3685,6.683,,,
29/05/2009 10:52,11157,15635,8172,86,345,392,0,10,101,3685,10.01,,,
29/05/2009 10:53,10948,15418,8074,86,366,393,0,10,98,3685,9.544,,,
29/05/2009 10:53,11127,15677,8227,86,356,394,0,10,101,3685,8.231,,,
29/05/2009 10:53,11211,15822,8226,86,318,394,0,10,98,3685,9.318,,,
29/05/2009 10:53,11066,15581,8143,86,333,394,0,10,98,3685,9.604,,,
29/05/2009 10:53,11204,15817,8255,86,363,394,0,10,98,3685,9.246,,,
29/05/2009 10:53,11161,15638,8217,86,337,391,0,10,98,3685,9.692,,,
29/05/2009 10:54,10980,15405,8061,86,331,390,0,10,99,3685,10.405,,,
29/05/2009 10:54,10992,15509,8060,86,334,395,0,10,99,3685,9.253,,,
29/05/2009 10:54,10817,15339,7907,86,340,391,0,10,99,3685,11.458,,,
29/05/2009 10:54,10617,14979,7790,86,299,394,0,10,99,3687,9.67,,,
29/05/2009 10:54,10590,14936,7758,86,343,395,0,10,98,3687,9.737,,,
29/05/2009 10:54,10515,14934,7683,87,338,394,0,10,99,3687,10.033,,,
29/05/2009 10:55,10453,14865,7671,87,359,394,0,10,99,3687,10.559,,,
29/05/2009 10:55,10414,14805,7603,87,349,395,0,10,101,3687,8.651,,,
29/05/2009 10:55,10230,14598,7479,87,319,393,0,10,98,3687,9.568,,,
29/05/2009 10:55,10137,14537,7433,87,295,394,0,10,100,3687,8.729,,,
29/05/2009 10:55,10292,14757,7492,88,322,394,0,10,98,3687,9.106,,,
29/05/2009 10:55,10249,14630,7417,88,297,393,0,10,99,3687,9.035,,,
29/05/2009 10:56,10045,14442,7267,88,314,393,0,10,98,3687,10.049,,,
29/05/2009 10:56,10132,14476,7373,88,325,395,0,10,99,3687,9.266,,,
29/05/2009 10:56,9883,14140,7222,88,342,393,0,10,98,3687,10.77,,,
29/05/2009 10:56,9797,13921,7161,88,314,393,0,10,98,3687,10.77,,,
29/05/2009 10:56,10020,14306,7288,88,324,393,0,10,98,3687,9.273,,,
29/05/2009 10:56,9751,13998,7161,87,365,393,0,10,97,3689,11.575,,,
29/05/2009 10:57,9723,13910,7129,87,331,389,0,10,99,3687,10.621,,,
29/05/2009 10:57,9819,14073,7199,87,305,391,0,10,98,3689,9.304,,,
29/05/2009 10:57,9816,13986,7206,87,284,389,0,10,100,3689,13.031,,,
29/05/2009 10:57,9505,13565,6995,87,295,389,0,10,98,3689,13.031,,,
29/05/2009 10:57,9586,13700,7039,87,324,394,0,10,98,3689,10.35,,,
29/05/2009 10:57,9732,13943,7111,87,361,392,0,10,98,3689,11.732,,,
29/05/2009 10:58,9422,13514,6938,87,335,389,0,10,98,3689,11.732,,,
29/05/2009 10:58,9463,13546,6953,86,308,392,0,10,99,3689,11.828,,,
29/05/2009 10:58,9484,13581,6938,86,298,394,0,10,98,3689,12.18,,,
29/05/2009 10:58,9195,13105,6780,86,303,389,0,10,98,3689,10.646,,,
29/05/2009 10:58,9543,13606,7009,87,321,390,0,10,99,3689,12.721,,,
29/05/2009 10:58,9150,13042,6780,87,315,389,0,10,98,3689,12.613,,,
29/05/2009 10:59,9098,12918,6756,87,274,388,0,10,99,3689,12.613,,,
29/05/2009 10:59,9237,13095,6857,87,336,390,0,10,100,3689,10.75,,,
29/05/2009 10:59,9327,13288,6875,87,364,389,0,10,100,3689,11.594,,,
29/05/2009 10:59,9123,12951,6814,87,333,393,0,10,101,3692,12.015,,,
29/05/2009 10:59,9136,12945,6818,87,300,394,0,10,103,3692,12.015,,,
29/05/2009 10:59,9138,12866,6818,87,296,389,0,10,103,3689,13.553,,,
29/05/2009 11:00,8993,12636,6655,87,318,389,0,10,99,3692,13.961,,,
29/05/2009 11:00,8947,12633,6658,87,328,388,0,10,99,3692,12.215,,,
29/05/2009 11:00,8828,12416,6632,87,376,390,0,10,98,3692,15.859,,,
29/05/2009 11:00,8650,12140,6532,87,371,386,0,10,100,3692,15.858,,,
29/05/2009 11:00,8881,12496,6665,87,336,389,0,10,98,3692,11.436,,,
29/05/2009 11:00,8785,12371,6605,87,340,389,0,10,98,3692,14.483,,,
29/05/2009 11:01,8598,12087,6538,87,333,384,0,10,98,3692,16.16,,,
29/05/2009 11:01,8673,12172,6546,87,379,387,0,10,98,3692,12.21,,,
29/05/2009 11:01,8517,11891,6485,88,368,386,0,10,98,3692,16.724,,,
29/05/2009 11:01,8556,12001,6503,88,316,384,0,10,100,3692,16.515,,,
29/05/2009 11:01,8510,11853,6472,88,318,387,0,10,98,3692,12.252,,,
29/05/2009 11:01,8417,11692,6412,88,345,383,0,10,98,3692,11.744,,,
29/05/2009 11:02,8271,11491,6282,88,350,383,0,10,98,3692,14.723,,,
29/05/2009 11:02,8351,11557,6346,88,332,386,0,10,98,3692,13.638,,,
29/05/2009 11:02,8403,11685,6392,88,355,386,0,10,100,3692,17.426,,,
29/05/2009 11:02,8050,11274,6221,88,397,384,0,10,98,3694,17.308,,,
29/05/2009 11:02,8167,11288,6225,88,352,388,0,10,98,3694,13.625,,,
29/05/2009 11:02,8342,11631,6320,88,351,384,0,10,97,3692,14.203,,,
29/05/2009 11:03,8116,11195,6219,88,396,382,0,10,98,3694,14.203,,,
29/05/2009 11:03,8238,11357,6323,88,350,384,0,10,98,3694,12.336,,,
29/05/2009 11:03,8275,11436,6319,88,379,384,0,10,98,3694,15.197,,,
29/05/2009 11:03,8056,11058,6195,89,391,383,0,10,98,3694,16.534,,,
29/05/2009 11:03,8397,11566,6389,89,360,388,0,10,98,3694,14.595,,,
29/05/2009 11:03,8484,11684,6480,90,368,396,0,10,98,3694,14.321,,,
29/05/2009 11:04,8151,11190,6277,90,390,398,0,10,98,3694,14.321,,,
29/05/2009 11:04,8014,10982,6127,90,381,390,0,10,100,3694,13.72,,,
29/05/2009 11:04,8076,10989,6226,90,412,387,0,10,99,3694,15.989,,,
29/05/2009 11:04,8137,11069,6253,90,425,389,0,10,99,3694,15.957,,,
29/05/2009 11:04,8263,11346,6325,90,386,389,0,10,98,3694,12.617,,,
29/05/2009 11:04,8405,11687,6420,90,395,400,0,10,98,3697,11.464,,,
29/05/2009 11:05,8408,11632,6406,90,445,398,0,10,99,3697,11.552,,,
29/05/2009 11:05,8353,11467,6373,90,387,395,0,10,98,3697,13.406,,,
29/05/2009 11:05,8324,11472,6352,90,392,392,0,10,98,3697,15.931,,,
29/05/2009 11:05,8287,11360,6337,89,452,388,0,10,98,3697,16.415,,,
29/05/2009 11:05,8310,11427,6341,89,448,394,0,10,98,3697,13.525,,,
29/05/2009 11:05,8437,11662,6437,89,428,390,0,10,98,3697,12.868,,,
29/05/2009 11:06,8567,11817,6532,89,471,391,0,10,100,3697,12.417,,,
29/05/2009 11:06,8683,12056,6597,89,425,392,0,10,99,3697,12.772,,,
29/05/2009 11:06,8556,11890,6494,89,412,393,0,10,100,3699,13.264,,,
29/05/2009 11:06,8294,11470,6355,89,405,389,0,10,98,3699,13.264,,,
29/05/2009 11:06,8394,11590,6392,89,421,395,0,10,98,3699,12.772,,,
29/05/2009 11:06,8585,11900,6506,89,438,392,0,10,98,3699,14.68,,,
29/05/2009 11:07,8485,11771,6478,89,468,388,0,10,98,3699,13.085,,,
29/05/2009 11:07,8569,11997,6506,89,438,390,0,10,98,3699,13.22,,,
29/05/2009 11:07,8371,11656,6367,89,422,388,0,10,100,3699,12.341,,,
29/05/2009 11:07,8258,11450,6310,89,436,391,0,10,100,3699,12.724,,,
29/05/2009 11:07,8666,12067,6594,89,483,389,0,10,98,3699,11.6,,,
29/05/2009 11:07,8798,12154,6669,89,457,388,0,10,98,3699,14.54,,,
29/05/2009 11:08,8302,11528,6362,89,362,386,0,10,100,3699,14.016,,,
29/05/2009 11:08,8474,11726,6455,89,372,386,0,10,98,3699,12.046,,,
29/05/2009 11:08,8436,11680,6422,89,414,386,0,10,98,3701,16.613,,,
29/05/2009 11:08,8349,11470,6363,89,450,386,0,10,98,3701,16.728,,,
29/05/2009 11:08,8371,11503,6384,89,420,384,0,10,100,3701,13.125,,,
29/05/2009 11:08,8404,11632,6399,89,429,383,0,10,101,3701,14.442,,,
29/05/2009 11:09,8310,11521,6322,89,487,381,0,10,98,3701,16.848,,,
29/05/2009 11:09,8319,11514,6341,89,495,382,0,10,98,3701,13.982,,,
29/05/2009 11:09,8238,11436,6281,89,503,384,0,10,99,3701,16.3,,,
29/05/2009 11:09,8260,11422,6262,89,486,380,0,10,98,3701,14.421,,,
29/05/2009 11:09,8351,11559,6368,89,473,382,0,10,100,3701,13.716,,,
29/05/2009 11:09,8293,11478,6315,89,480,379,0,10,100,3701,14.195,,,
29/05/2009 11:10,8229,11410,6292,89,496,378,0,10,99,3701,16.769,,,
29/05/2009 11:10,8367,11497,6355,89,502,380,0,10,98,3704,101.734,,,
29/05/2009 11:10,8355,11626,6349,89,493,381,0,10,98,3704,67.577,,,
29/05/2009 11:10,8283,11482,6318,89,461,377,0,10,98,3704,68.493,,,
29/05/2009 11:10,8425,11713,6303,89,432,380,0,10,99,3704,194.64,,,
29/05/2009 11:10,22950,22978,22926,89,447,380,0,10,98,3704,182.294,,,
29/05/2009 11:11,22949,22981,22849,89,467,376,0,10,98,3704,38.095,,,
29/05/2009 11:11,22936,23476,22496,89,494,378,0,10,97,3704,34.146,,,
29/05/2009 11:11,22984,23235,22804,89,477,374,0,10,98,3704,31.111,,,
29/05/2009 11:11,22891,22968,22846,89,414,381,0,10,98,3704,31.111,,,
29/05/2009 11:11,22949,22960,22941,89,415,391,0,10,99,3704,199.332,,,
29/05/2009 11:11,22953,22966,22943,89,467,389,0,10,99,3704,39.949,,,
29/05/2009 11:12,22949,22959,22939,89,486,383,0,10,98,3704,21.878,,,
29/05/2009 11:12,5074,6492,3182,89,443,394,0,10,99,3704,21.878,,,
29/05/2009 11:12,8751,12620,6500,89,408,382,0,10,99,3704,9.015,,,
29/05/2009 11:12,21085,21579,20785,89,460,391,0,10,100,3706,7.915,,,
29/05/2009 11:12,16386,17737,15329,89,360,389,0,10,98,3706,8.848,,,
29/05/2009 11:12,8615,12200,6237,89,360,393,0,10,98,3706,11.58,,,
29/05/2009 11:13,8452,11980,6137,89,146,396,0,10,100,3706,11.429,,,
29/05/2009 11:13,8525,12234,6148,89,519,399,0,10,99,3706,9.699,,,
29/05/2009 11:13,8426,12130,6069,89,509,390,0,10,98,3706,11.546,,,
29/05/2009 11:13,8341,12009,6035,89,433,393,0,10,97,3706,14.104,,,
29/05/2009 11:13,8240,11875,5991,89,417,387,0,10,98,3706,12.457,,,
29/05/2009 11:13,8022,11715,5785,89,396,384,0,10,98,3706,13.812,,,
29/05/2009 11:14,7984,11536,5753,90,385,389,0,10,98,3706,13.396,,,
29/05/2009 11:14,7846,11319,5695,91,400,388,0,10,99,3706,12.702,,,
29/05/2009 11:14,7605,11032,5531,91,396,386,0,10,98,3706,14.271,,,
29/05/2009 11:14,7525,10776,5492,91,387,386,0,10,98,3706,15.177,,,
29/05/2009 11:14,7407,10659,5376,91,380,381,0,10,98,3706,13.642,,,
29/05/2009 11:14,7203,10356,5259,92,369,385,0,10,98,3706,14.928,,,
29/05/2009 11:15,7096,10140,5179,92,359,379,0,10,98,3706,13.544,,,
29/05/2009 11:15,7079,10076,5172,92,339,382,0,10,98,3706,11.656,,,
29/05/2009 11:15,6810,9637,5004,92,321,380,0,10,98,3706,13.965,,,
29/05/2009 11:15,6733,9588,4967,92,302,383,0,10,101,3706,15.04,,,
29/05/2009 11:15,6931,9796,5073,92,295,383,0,10,98,3706,13.212,,,
29/05/2009 11:15,6742,9454,4971,92,290,380,0,10,98,3706,13.024,,,
29/05/2009 11:16,6620,9220,4878,92,288,382,0,10,98,3706,11.138,,,
29/05/2009 11:16,6668,9319,4891,92,290,384,0,10,98,3706,11.451,,,
29/05/2009 11:16,6558,9196,4804,92,295,379,0,10,99,3706,15.344,,,
29/05/2009 11:16,6530,9045,4854,92,303,388,0,10,99,3706,13.912,,,
29/05/2009 11:16,6619,9144,4894,92,315,382,0,10,98,3706,13.912,,,
29/05/2009 11:16,6584,9233,4860,92,314,379,0,10,101,3706,16.512,,,
29/05/2009 11:17,6503,9028,4822,92,333,378,0,10,101,3706,12.172,,,
29/05/2009 11:17,6498,9013,4844,92,365,377,0,10,98,3706,11.261,,,
29/05/2009 11:17,6549,9060,4846,92,378,380,0,10,98,3706,11.379,,,
29/05/2009 11:17,6521,8981,4851,92,380,378,0,10,99,3706,14.38,,,
29/05/2009 11:17,6749,9315,5016,92,403,378,0,10,100,3706,14.38,,,
29/05/2009 11:17,6765,9359,5013,92,430,378,0,10,99,3706,14.25,,,
29/05/2009 11:18,6673,9186,4980,92,451,378,0,10,98,3706,13.419,,,
29/05/2009 11:18,6659,9222,4948,92,455,378,0,10,100,3709,13.419,,,
29/05/2009 11:18,6663,9186,4976,92,454,376,0,10,99,3709,12.933,,,
29/05/2009 11:18,6640,9139,4940,92,472,380,0,10,98,3706,14.956,,,
29/05/2009 11:18,6594,9049,4917,92,499,377,0,10,100,3709,10.486,,,
29/05/2009 11:18,6597,9080,4898,92,530,377,0,10,98,3706,14.435,,,
29/05/2009 11:19,6682,9166,4958,92,558,378,0,10,98,3706,14.179,,,
29/05/2009 11:19,6666,9129,4980,92,583,374,0,10,98,3706,10.883,,,
29/05/2009 11:19,6657,9140,4975,92,597,376,0,10,98,3709,13.18,,,
29/05/2009 11:19,6795,9301,5067,92,611,376,0,10,99,3709,14.215,,,
29/05/2009 11:19,6919,9514,5180,92,627,373,0,10,98,3706,12.449,,,
29/05/2009 11:19,6834,9361,5103,92,629,374,0,10,98,3706,12.071,,,
29/05/2009 11:20,6957,9564,5217,92,634,372,0,10,98,3709,10.44,,,
29/05/2009 11:20,7120,9855,5296,92,639,375,0,10,100,3709,11.921,,,
29/05/2009 11:20,7181,9946,5351,91,634,381,0,10,100,3709,14.289,,,
29/05/2009 11:20,7115,9885,5287,90,638,378,0,10,98,3709,13.715,,,
29/05/2009 11:20,7266,10114,5364,90,636,382,0,10,99,3709,11.974,,,
29/05/2009 11:20,7099,9890,5259,90,638,374,0,10,100,3709,12.096,,,
29/05/2009 11:21,7102,9903,5261,90,646,377,0,10,98,3709,15.277,,,
29/05/2009 11:21,7327,10231,5416,90,648,375,0,10,101,3709,12.076,,,
29/05/2009 11:21,7102,9900,5291,90,645,374,0,10,99,3709,10.247,,,
29/05/2009 11:21,7065,9929,5237,90,626,377,0,10,98,3709,15.416,,,
29/05/2009 11:21,7354,10290,5420,90,653,378,0,10,100,3709,10.43,,,
29/05/2009 11:21,7272,10192,5371,90,650,373,0,10,99,3709,9.782,,,
29/05/2009 11:22,7086,9845,5248,90,660,366,0,10,98,3709,9.407,,,
29/05/2009 11:22,7359,10265,5465,89,666,373,0,10,100,3709,12.079,,,
29/05/2009 11:22,7362,10142,5438,89,679,372,0,10,100,3709,12.088,,,
29/05/2009 11:22,7287,10156,5389,89,655,370,0,10,99,3709,12.153,,,
29/05/2009 11:22,7287,10233,5386,89,668,377,0,10,98,3709,14.11,,,
29/05/2009 11:22,7309,10223,5387,89,656,373,0,10,101,3709,13.569,,,
29/05/2009 11:23,7321,10285,5385,89,660,373,0,10,99,3709,13.569,,,
29/05/2009 11:23,7295,10249,5388,89,674,370,0,10,99,3709,11.326,,,
29/05/2009 11:23,7290,10199,5408,89,637,370,0,10,98,3709,10.638,,,
29/05/2009 11:23,7273,10132,5381,89,662,368,0,10,101,3709,11.52,,,
29/05/2009 11:23,7379,10300,5472,89,663,371,0,10,100,3709,11.295,,,
29/05/2009 11:23,7389,10332,5476,89,653,370,0,10,100,3709,11.919,,,
29/05/2009 11:24,7676,10742,5696,89,643,371,0,10,99,3709,13.264,,,
29/05/2009 11:24,7705,10832,5690,89,636,369,0,10,101,3711,11.967,,,
29/05/2009 11:24,7564,10632,5575,89,620,375,0,10,100,3709,12.224,,,
29/05/2009 11:24,7668,10797,5637,89,629,372,0,10,99,3711,12.95,,,
29/05/2009 11:24,7818,11043,5735,89,641,375,0,10,99,3711,12.723,,,
29/05/2009 11:24,7765,10945,5702,89,621,373,0,10,98,3711,13.463,,,
29/05/2009 11:25,7816,11088,5737,89,607,372,0,10,100,3711,13.943,,,
29/05/2009 11:25,7978,11317,5905,89,600,373,0,10,99,3711,13.173,,,
29/05/2009 11:25,7952,11237,5844,89,593,373,0,10,99,3711,11.473,,,
29/05/2009 11:25,7791,11040,5702,89,578,372,0,10,100,3711,12.124,,,
29/05/2009 11:25,8045,11439,5858,89,563,376,0,10,103,3711,9.699,,,
29/05/2009 11:25,8125,11597,5934,89,549,376,0,10,103,3711,13.409,,,
29/05/2009 11:26,8176,11678,5948,89,544,376,0,10,103,3711,11.2,,,
29/05/2009 11:26,8276,11881,6049,89,516,378,0,10,99,3711,10.9,,,
29/05/2009 11:26,8111,11636,5903,88,492,373,0,10,100,3711,12.241,,,
29/05/2009 11:26,8109,11648,5905,88,475,373,0,10,100,3711,12.017,,,
29/05/2009 11:26,8383,12101,6077,88,462,371,0,10,100,3711,11.298,,,
29/05/2009 11:26,8398,12099,6068,88,468,373,0,10,102,3711,11.328,,,
29/05/2009 11:27,8440,12140,6117,88,464,376,0,10,102,3711,11.825,,,
29/05/2009 11:27,8446,12237,6104,88,458,375,0,10,103,3711,9.539,,,
29/05/2009 11:27,8435,12163,6115,88,436,378,0,10,103,3711,10.283,,,
29/05/2009 11:27,8392,12083,6079,88,440,386,0,10,104,3713,10.473,,,
29/05/2009 11:27,8491,12288,6127,88,454,377,0,10,103,3713,9.352,,,
29/05/2009 11:27,8560,12366,6165,88,450,373,0,10,101,3713,10.4,,,
29/05/2009 11:28,8699,12587,6245,88,459,373,0,10,98,3713,10.4,,,
29/05/2009 11:28,8560,12394,6167,88,439,377,0,10,101,3713,9.478,,,
29/05/2009 11:28,8616,12513,6195,88,440,376,0,10,101,3713,9.617,,,
29/05/2009 11:28,8699,12664,6243,88,423,373,0,10,101,3713,9.617,,,
29/05/2009 11:28,8769,12725,6288,88,419,379,0,10,98,3713,10.905,,,
29/05/2009 11:28,8755,12758,6269,88,410,372,0,10,98,3713,8.758,,,
29/05/2009 11:29,8737,12742,6261,88,412,376,0,10,99,3713,8.758,,,
29/05/2009 11:29,8784,12758,6300,88,410,375,0,10,100,3713,9.322,,,
29/05/2009 11:29,8748,12728,6288,88,399,377,0,10,103,3713,9.087,,,
29/05/2009 11:29,8932,12981,6387,88,391,378,0,10,100,3713,8.922,,,
29/05/2009 11:29,9080,13160,6464,88,365,378,0,10,102,3713,9.432,,,
29/05/2009 11:29,9035,13192,6460,88,374,377,0,10,100,3713,10.703,,,
29/05/2009 11:30,9043,13212,6480,88,373,376,0,10,101,3713,10.667,,,
29/05/2009 11:30,9201,13428,6565,88,361,375,0,10,100,3713,10.358,,,
29/05/2009 11:30,9022,13157,6460,88,361,378,0,10,101,3713,10.265,,,
29/05/2009 11:30,8988,13076,6435,88,353,381,0,10,100,3713,10.265,,,
29/05/2009 11:30,9235,13430,6551,88,352,378,0,10,99,3713,11.987,,,
29/05/2009 11:30,9071,13274,6465,88,348,377,0,10,100,3713,11.143,,,
29/05/2009 11:31,8996,13305,6443,88,341,380,0,10,101,3713,11.143,,,
29/05/2009 11:31,9064,13248,6460,88,354,377,0,10,102,3713,9.568,,,
29/05/2009 11:31,9082,13400,6476,88,350,377,0,10,100,3713,10.671,,,
29/05/2009 11:31,8971,13132,6404,88,345,378,0,10,101,3716,10.595,,,
29/05/2009 11:31,9051,13300,6439,88,332,379,0,10,100,3716,10.892,,,
29/05/2009 11:31,9058,13360,6424,88,333,377,0,10,100,3713,10.464,,,
29/05/2009 11:32,9002,13163,6415,88,330,377,0,10,100,3716,10.464,,,
29/05/2009 11:32,8996,13313,6428,87,333,377,0,10,98,3716,9.625,,,
29/05/2009 11:32,8966,13216,6395,87,327,377,0,10,100,3716,10.959,,,
29/05/2009 11:32,9045,13288,6430,87,331,378,0,10,102,3716,10.185,,,
29/05/2009 11:32,9047,13340,6447,87,328,378,0,10,100,3716,10.185,,,
29/05/2009 11:32,9127,13349,6497,87,344,376,0,10,99,3716,9.968,,,
29/05/2009 11:33,9067,13239,6457,86,354,377,0,10,101,3716,10.239,,,
29/05/2009 11:33,9066,13267,6499,86,379,379,0,10,99,3716,10.845,,,
29/05/2009 11:33,9062,13276,6477,86,403,377,0,10,100,3716,9.607,,,
29/05/2009 11:33,9170,13433,6536,86,364,379,0,10,101,3716,10.199,,,
29/05/2009 11:33,9201,13431,6575,86,354,381,0,10,101,3716,9.665,,,
29/05/2009 11:33,9242,13511,6560,86,357,381,0,10,101,3716,9.658,,,
29/05/2009 11:34,9181,13467,6545,86,371,378,0,10,101,3716,11.407,,,
29/05/2009 11:34,9110,13328,6475,86,360,380,0,10,104,3716,8.749,,,
29/05/2009 11:34,9124,13443,6483,86,365,385,0,10,100,3716,10.219,,,
29/05/2009 11:34,9194,13502,6544,86,385,381,0,10,99,3716,9.521,,,
29/05/2009 11:34,9362,13704,6607,86,367,383,0,10,100,3716,10.301,,,
29/05/2009 11:34,9230,13641,6557,86,383,378,0,10,100,3716,10.321,,,
29/05/2009 11:35,9257,13635,6547,86,389,384,0,10,101,3716,11.217,,,
29/05/2009 11:35,9381,13845,6634,86,374,380,0,10,100,3716,8.7,,,
29/05/2009 11:35,9366,13813,6628,86,373,382,0,10,102,3718,9.896,,,
29/05/2009 11:35,9328,13808,6606,86,352,382,0,10,102,3718,8.65,,,
29/05/2009 11:35,9582,14254,6798,86,326,388,0,10,100,3718,9.912,,,
29/05/2009 11:35,9572,14197,6707,86,308,379,0,10,102,3716,9.281,,,
29/05/2009 11:36,9501,14128,6670,86,282,384,0,10,101,3718,9.558,,,
29/05/2009 11:36,9584,14241,6730,86,289,384,0,10,101,3718,8.079,,,
29/05/2009 11:36,9588,14250,6741,86,278,385,0,10,102,3718,8.52,,,
29/05/2009 11:36,9526,14173,6707,86,268,385,0,10,101,3718,8.167,,,
29/05/2009 11:36,9621,14308,6749,86,275,384,0,10,98,3718,7.158,,,
29/05/2009 11:36,9658,14379,6756,86,284,386,0,10,101,3718,8.371,,,
29/05/2009 11:37,9590,14240,6715,85,283,383,0,10,101,3718,7.951,,,
29/05/2009 11:37,9641,14323,6749,85,278,384,0,10,102,3718,7.844,,,
29/05/2009 11:37,9673,14324,6758,85,286,384,0,10,101,3718,7.844,,,
29/05/2009 11:37,9655,14403,6749,85,289,384,0,10,101,3718,9.343,,,
29/05/2009 11:37,9690,14505,6799,85,282,385,0,10,101,3718,9.343,,,
29/05/2009 11:37,9675,14387,6784,85,283,387,0,10,100,3718,9.542,,,
29/05/2009 11:38,9510,14193,6664,85,283,383,0,10,100,3718,8.803,,,
29/05/2009 11:38,9590,14287,6727,85,285,384,0,10,99,3718,7.862,,,
29/05/2009 11:38,9604,14309,6744,85,296,386,0,10,101,3718,8.651,,,
29/05/2009 11:38,9662,14379,6752,85,278,386,0,10,102,3718,8.199,,,
29/05/2009 11:38,9820,14642,6865,85,285,388,0,10,99,3718,6.118,,,
29/05/2009 11:38,9798,14613,6847,85,278,387,0,10,101,3718,8.946,,,
29/05/2009 11:39,9855,14674,6888,85,265,386,0,10,102,3718,9.218,,,
29/05/2009 11:39,9962,14795,6951,85,263,388,0,10,101,3718,7.992,,,
29/05/2009 11:39,9820,14604,6863,85,269,386,0,10,100,3718,7.916,,,
29/05/2009 11:39,9807,14599,6864,85,263,387,0,10,102,3718,6.928,,,
29/05/2009 11:39,9911,14775,6912,85,266,391,0,10,102,3718,7.727,,,
29/05/2009 11:39,9969,14856,6967,85,283,387,0,10,102,3720,7.727,,,
29/05/2009 11:40,9938,14751,6930,84,271,389,0,10,102,3720,7.869,,,
29/05/2009 11:40,9938,14816,6925,84,284,384,0,10,100,3720,7.34,,,
29/05/2009 11:40,9874,14720,6903,84,276,387,0,10,101,3720,7.567,,,
29/05/2009 11:40,9791,14653,6849,84,272,390,0,10,100,3720,7.23,,,
29/05/2009 11:40,9978,14881,6956,84,287,390,0,10,102,3720,6.77,,,
29/05/2009 11:40,10061,14994,6980,84,275,389,0,10,100,3720,8.748,,,
29/05/2009 11:41,9938,14850,6924,83,267,391,0,10,103,3720,7.437,,,
29/05/2009 11:41,10026,14991,6975,83,272,390,0,10,99,3720,7.059,,,
29/05/2009 11:41,9993,14949,6944,83,278,386,0,10,100,3720,8.163,,,
29/05/2009 11:41,9938,14887,6920,83,257,388,0,10,100,3720,7.011,,,
29/05/2009 11:41,10047,15009,6976,83,249,390,0,10,100,3720,7.257,,,
29/05/2009 11:41,10082,15090,6978,83,249,390,0,10,101,3720,7.257,,,
29/05/2009 11:42,10108,15119,6997,83,250,390,0,10,102,3720,7.346,,,
29/05/2009 11:42,10103,15130,7013,83,241,387,0,10,100,3720,7.071,,,
29/05/2009 11:42,10125,15104,7024,83,239,389,0,10,100,3720,7.235,,,
29/05/2009 11:42,10120,15171,7022,83,234,395,0,10,101,3720,6.573,,,
29/05/2009 11:42,10134,15162,7045,83,237,388,0,10,101,3720,7.273,,,
29/05/2009 11:42,10096,15117,7019,83,238,387,0,10,99,3720,7.273,,,
29/05/2009 11:43,10058,15031,6997,83,232,387,0,10,102,3723,7.056,,,
29/05/2009 11:43,9979,14888,6956,83,227,400,0,10,102,3720,7.22,,,
29/05/2009 11:43,9984,14941,6916,83,225,384,0,10,99,3720,7.22,,,
29/05/2009 11:43,10067,15093,6963,83,238,391,0,10,100,3723,7.138,,,
29/05/2009 11:43,10152,15152,7036,83,246,400,0,10,101,3723,7.702,,,
29/05/2009 11:43,10046,15013,6981,83,235,396,0,10,100,3723,7.702,,,
29/05/2009 11:44,9955,14884,6905,83,230,389,0,10,103,3723,7.732,,,
29/05/2009 11:44,10047,15056,6955,83,233,392,0,10,101,3723,8.323,,,
29/05/2009 11:44,9909,14877,6875,83,235,388,0,10,103,3723,7.476,,,
29/05/2009 11:44,9894,14830,6853,83,230,391,0,10,101,3723,6.748,,,
29/05/2009 11:44,9925,14910,6855,83,246,388,0,10,100,3723,7.464,,,
29/05/2009 11:44,9948,14907,6868,83,246,394,0,10,100,3723,7.464,,,
29/05/2009 11:45,9841,14787,6815,83,242,392,0,10,100,3723,7.361,,,
29/05/2009 11:45,9978,14966,6913,83,239,392,0,10,100,3723,6.248,,,
29/05/2009 11:45,9981,14981,6885,83,234,394,0,10,100,3723,6.305,,,
29/05/2009 11:45,9912,14857,6870,83,225,394,0,10,101,3723,6.6,,,
29/05/2009 11:45,10054,15056,6951,83,221,391,0,10,100,3723,6.13,,,
29/05/2009 11:45,10052,15063,6906,83,233,394,0,10,100,3723,7.651,,,
29/05/2009 11:46,9975,14954,6895,83,236,393,0,10,99,3723,7.448,,,
29/05/2009 11:46,10103,15142,6986,83,238,395,0,10,99,3723,6.026,,,
29/05/2009 11:46,10057,15126,6961,83,236,394,0,10,100,3725,5.893,,,
29/05/2009 11:46,9994,14975,6916,83,235,392,0,10,102,3725,6.22,,,
29/05/2009 11:46,10089,15154,6967,83,231,395,0,10,99,3725,7.289,,,
29/05/2009 11:46,9982,15094,6866,83,232,392,0,10,98,3725,7.289,,,
29/05/2009 11:47,9843,14912,6787,82,239,395,0,10,102,3725,5.896,,,
29/05/2009 11:47,9883,14960,6813,81,239,394,0,10,101,3725,6.373,,,
29/05/2009 11:47,9792,14828,6754,81,235,390,0,10,101,3725,6.536,,,
29/05/2009 11:47,9850,14892,6775,81,226,395,0,10,100,3725,6.666,,,
29/05/2009 11:47,9831,14894,6767,81,224,394,0,10,98,3725,6.589,,,
29/05/2009 11:47,9868,14940,6783,80,226,394,0,10,99,3725,6.35,,,
29/05/2009 11:48,9853,14931,6769,80,225,392,0,10,99,3725,6.257,,,
29/05/2009 11:48,9823,14901,6740,80,222,389,0,10,99,3725,5.802,,,
29/05/2009 11:48,9678,14684,6675,80,223,395,0,10,101,3725,5.6,,,
29/05/2009 11:48,9672,14709,6658,80,225,390,0,10,98,3725,7.381,,,
29/05/2009 11:48,9655,14685,6639,80,226,393,0,10,102,3727,5.415,,,
29/05/2009 11:48,9509,14456,6521,80,227,393,0,10,102,3727,5.402,,,
29/05/2009 11:49,9470,14382,6498,80,224,389,0,10,101,3727,7.176,,,
29/05/2009 11:49,9487,14397,6517,81,226,392,0,10,102,3727,7.234,,,
29/05/2009 11:49,9377,14285,6465,81,226,391,0,10,101,3727,7.739,,,
29/05/2009 11:49,9318,14103,6405,81,230,393,0,10,102,3727,7.203,,,
29/05/2009 11:49,9291,14143,6377,81,236,392,0,10,103,3727,7.767,,,
29/05/2009 11:49,9177,13950,6308,81,239,391,0,10,101,3727,7.823,,,
29/05/2009 11:50,8991,13738,6170,81,242,388,0,10,100,3727,7.722,,,
29/05/2009 11:50,9171,13854,6313,81,246,388,0,10,102,3727,6.055,,,
29/05/2009 11:50,9209,13880,6338,82,245,391,0,10,100,3727,6.055,,,
29/05/2009 11:50,9280,14038,6412,82,248,392,0,10,100,3727,6.351,,,
29/05/2009 11:50,9584,14432,6605,82,262,395,0,10,100,3727,6.719,,,
29/05/2009 11:50,9576,14386,6594,83,268,390,0,10,100,3727,6.59,,,
29/05/2009 11:51,9468,14272,6527,83,260,392,0,10,102,3727,5.858,,,
29/05/2009 11:51,9561,14464,6592,83,270,390,0,10,101,3727,5.551,,,
29/05/2009 11:51,9690,14608,6667,83,278,395,0,10,101,3727,4.77,,,
29/05/2009 11:51,9570,14520,6595,82,262,392,0,10,100,3727,5.157,,,
29/05/2009 11:51,9768,14754,6701,81,258,394,0,10,100,3727,5.325,,,
29/05/2009 11:51,9778,14758,6717,81,261,394,0,10,99,3727,5.65,,,
29/05/2009 11:52,9798,14729,6736,82,265,394,0,10,99,3727,5.857,,,
29/05/2009 11:52,9846,14889,6790,82,264,391,0,10,98,3727,6.529,,,
29/05/2009 11:52,9783,14827,6698,81,265,390,0,10,101,3727,4.762,,,
29/05/2009 11:52,9657,14702,6639,80,262,394,0,10,100,3727,6.044,,,
29/05/2009 11:52,9953,14951,6849,81,260,393,0,10,103,3727,6.2,,,
29/05/2009 11:52,9945,15062,6849,81,259,394,0,10,101,3727,5.877,,,
29/05/2009 11:53,10006,15129,6863,81,273,388,0,10,101,3727,5.865,,,
29/05/2009 11:53,10117,15269,6929,81,258,390,0,10,101,3729,4.624,,,
29/05/2009 11:53,9983,15197,6843,81,247,390,0,10,100,3727,4.761,,,
29/05/2009 11:53,10005,15245,6835,81,230,390,0,10,99,3727,5.234,,,
29/05/2009 11:53,10181,15396,6949,81,225,391,0,10,101,3727,5.059,,,
29/05/2009 11:53,10080,15308,6891,81,219,395,0,10,103,3727,6.136,,,
29/05/2009 11:54,10089,15354,6885,81,223,392,0,10,102,3727,4.983,,,
29/05/2009 11:54,10259,15485,7035,81,219,397,0,10,101,3727,5.034,,,
29/05/2009 11:54,10109,15300,6939,81,217,389,0,10,100,3729,5.959,,,
29/05/2009 11:54,9963,15132,6816,81,215,390,0,10,100,3727,6.541,,,
29/05/2009 11:54,10028,15230,6847,81,217,394,0,10,100,3727,5.724,,,
29/05/2009 11:54,9862,14936,6740,81,225,389,0,10,102,3727,6.078,,,
29/05/2009 11:55,9679,14704,6638,82,240,391,0,10,102,3729,6.77,,,
29/05/2009 11:55,9583,14597,6566,82,250,393,0,10,101,3729,6.742,,,
29/05/2009 11:55,9393,14330,6431,82,248,388,0,10,101,3729,6.605,,,
29/05/2009 11:55,9247,14055,6351,82,243,389,0,10,103,3729,6.701,,,
29/05/2009 11:55,9295,14120,6377,82,247,394,0,10,100,3729,6.413,,,
29/05/2009 11:55,9271,14003,6400,82,251,389,0,10,102,3729,8.006,,,
29/05/2009 11:56,9180,13881,6321,82,265,390,0,10,101,3729,6.609,,,
29/05/2009 11:56,9251,13942,6394,83,284,388,0,10,101,3729,5.526,,,
29/05/2009 11:56,9208,13905,6361,83,286,387,0,10,105,3729,5.714,,,
29/05/2009 11:56,9203,13875,6329,83,265,388,0,10,102,3729,7.75,,,
29/05/2009 11:56,9176,13911,6326,83,270,393,0,10,103,3729,7.75,,,
29/05/2009 11:56,9207,13911,6342,83,271,390,0,10,102,3729,7.597,,,
29/05/2009 11:57,9079,13746,6242,83,259,387,0,10,101,3729,6.591,,,
29/05/2009 11:57,9041,13683,6242,83,260,391,0,10,100,3729,6.259,,,
29/05/2009 11:57,8989,13627,6212,83,258,390,0,10,101,3729,6.434,,,
29/05/2009 11:57,8977,13633,6209,83,257,388,0,10,101,3729,8.018,,,
29/05/2009 11:57,8981,13579,6193,83,255,389,0,10,101,3729,7.626,,,
29/05/2009 11:57,8902,13536,6140,83,249,388,0,10,102,3729,7.659,,,
29/05/2009 11:58,8822,13414,6113,83,244,388,0,10,102,3729,7.845,,,
29/05/2009 11:58,8865,13482,6137,83,242,388,0,10,103,3729,7.169,,,
29/05/2009 11:58,8713,13202,6049,83,238,387,0,10,101,3729,7.593,,,
29/05/2009 11:58,8740,13258,6060,83,240,389,0,10,102,3729,7.132,,,
29/05/2009 11:58,8826,13400,6095,83,245,392,0,10,102,3729,7.132,,,
29/05/2009 11:58,8685,13221,6029,83,241,386,0,10,101,3729,9.437,,,
29/05/2009 11:59,8599,13034,5956,83,240,387,0,10,101,3729,9.101,,,
29/05/2009 11:59,8700,13187,6035,83,238,392,0,10,101,3729,8.595,,,
29/05/2009 11:59,8554,12992,5968,83,236,384,0,10,102,3729,8.607,,,
29/05/2009 11:59,8529,12913,5945,83,236,387,0,10,100,3729,8.16,,,
29/05/2009 11:59,8696,13105,6041,83,239,389,0,10,103,3729,8.726,,,
29/05/2009 11:59,8632,13052,5999,83,244,382,0,10,104,3729,9.047,,,
29/05/2009 12:00,8624,13033,6016,83,248,389,0,10,102,3729,8.626,,,
29/05/2009 12:00,8625,13020,6004,83,243,384,0,10,102,3729,7.395,,,
29/05/2009 12:00,8580,13011,5958,83,236,383,0,10,102,3729,7.395,,,
29/05/2009 12:00,8551,12989,5989,83,234,389,0,10,103,3729,8.554,,,
29/05/2009 12:00,8792,13281,6115,83,238,388,0,10,100,3729,7.237,,,
29/05/2009 12:00,8840,13354,6152,82,237,378,0,10,102,3729,7.415,,,
29/05/2009 12:01,8956,13509,6239,82,237,384,0,10,104,3729,8.309,,,
29/05/2009 12:01,9028,13603,6309,82,231,387,0,10,100,3729,8.047,,,
29/05/2009 12:01,9168,13753,6414,83,230,392,0,10,100,3729,6.945,,,
29/05/2009 12:01,9224,13858,6425,83,237,383,0,10,103,3732,7.177,,,
29/05/2009 12:01,9328,13994,6508,83,249,388,0,10,100,3729,6.397,,,
29/05/2009 12:01,9385,14115,6522,83,240,390,0,10,101,3729,6.807,,,
29/05/2009 12:02,9448,14222,6589,83,245,390,0,10,100,3729,7.153,,,
29/05/2009 12:02,9507,14288,6632,83,254,386,0,10,100,3729,6.552,,,
29/05/2009 12:02,9488,14292,6607,83,259,386,0,10,99,3729,5.914,,,
29/05/2009 12:02,9490,14265,6606,83,254,389,0,10,101,3729,6.834,,,
29/05/2009 12:02,9611,14488,6664,83,260,389,0,10,102,3729,6.099,,,
29/05/2009 12:02,9559,14449,6624,83,270,390,0,10,101,3732,6.7,,,
29/05/2009 12:03,9522,14429,6596,83,266,388,0,10,100,3732,7.715,,,
29/05/2009 12:03,9510,14461,6579,83,249,387,0,10,102,3732,6.052,,,
29/05/2009 12:03,9343,14176,6480,83,240,388,0,10,103,3732,6.82,,,
29/05/2009 12:03,9357,14218,6462,83,235,390,0,10,103,3732,6.073,,,
29/05/2009 12:03,9455,14397,6516,83,230,389,0,10,105,3732,7.292,,,
29/05/2009 12:03,9291,14148,6411,82,228,387,0,10,103,3732,7.153,,,
29/05/2009 12:04,9297,14169,6453,82,226,389,0,10,100,3732,6.476,,,
29/05/2009 12:04,9444,14316,6543,82,222,394,0,10,101,3732,6.651,,,
29/05/2009 12:04,9332,14175,6433,82,217,382,0,10,101,3732,6.694,,,
29/05/2009 12:04,9215,14032,6383,82,207,387,0,10,104,3732,6.68,,,
29/05/2009 12:04,9327,14144,6431,82,206,392,0,10,101,3732,7.4,,,
29/05/2009 12:04,9284,14022,6392,82,207,390,0,10,104,3732,6.896,,,
29/05/2009 12:05,9189,13935,6352,82,210,388,0,10,103,3732,7.481,,,
29/05/2009 12:05,9189,13981,6355,83,214,390,0,10,102,3732,7.286,,,
29/05/2009 12:05,9170,13917,6353,83,219,390,0,10,103,3732,6.558,,,
29/05/2009 12:05,9102,13785,6302,83,222,390,0,10,102,3732,7.532,,,
29/05/2009 12:05,9065,13808,6279,83,219,389,0,10,101,3732,7.721,,,
29/05/2009 12:05,9064,13820,6267,83,220,393,0,10,103,3732,7.501,,,
29/05/2009 12:06,9081,13791,6263,83,219,388,0,10,102,3732,7.533,,,
29/05/2009 12:06,9042,13731,6228,83,211,388,0,10,102,3732,7.533,,,
29/05/2009 12:06,9054,13774,6288,83,207,390,0,10,102,3732,7.157,,,
29/05/2009 12:06,9032,13740,6260,83,205,391,0,10,102,3734,7.73,,,
29/05/2009 12:06,9055,13764,6269,83,199,390,0,10,102,3732,7.387,,,
29/05/2009 12:06,9072,13834,6265,83,198,391,0,10,104,3732,7.588,,,
29/05/2009 12:07,9049,13745,6252,83,202,390,0,10,104,3734,7.588,,,
29/05/2009 12:07,9040,13686,6294,83,203,391,0,10,103,3734,6.418,,,
29/05/2009 12:07,9021,13742,6257,83,206,391,0,10,102,3734,7.256,,,
29/05/2009 12:07,8975,13595,6231,83,209,390,0,10,102,3734,7.256,,,
29/05/2009 12:07,9139,13927,6332,83,211,393,0,10,101,3734,8.134,,,
29/05/2009 12:07,8982,13682,6214,83,208,390,0,10,102,3734,7.789,,,
29/05/2009 12:08,8822,13414,6090,83,211,393,0,10,101,3734,8.128,,,
29/05/2009 12:08,8842,13409,6127,83,206,397,0,10,102,3734,7.218,,,
29/05/2009 12:08,8756,13315,6077,83,208,391,0,10,103,3734,7.051,,,
29/05/2009 12:08,8779,13360,6080,83,208,396,0,10,103,3734,7.377,,,
29/05/2009 12:08,8903,13548,6162,83,206,395,0,10,103,3734,6.879,,,
29/05/2009 12:08,8753,13343,6078,83,208,394,0,10,101,3734,8.034,,,
29/05/2009 12:09,8761,13336,6056,83,210,390,0,10,101,3734,8.034,,,
29/05/2009 12:09,8805,13418,6104,83,207,392,0,10,103,3734,6.258,,,
29/05/2009 12:09,8824,13483,6097,83,206,390,0,10,104,3734,6.496,,,
29/05/2009 12:09,8715,13275,6053,83,206,392,0,10,101,3734,7.799,,,
29/05/2009 12:09,8797,13444,6094,83,202,395,0,10,101,3734,6.966,,,
29/05/2009 12:09,8832,13448,6108,83,204,393,0,10,101,3736,7.6,,,
29/05/2009 12:10,8809,13351,6103,83,207,393,0,10,100,3734,7.6,,,
29/05/2009 12:10,8858,13479,6114,83,205,393,0,10,103,3736,6.887,,,
29/05/2009 12:10,8875,13483,6130,83,204,394,0,10,101,3736,7.128,,,
29/05/2009 12:10,8892,13502,6144,83,203,394,0,10,103,3736,6.721,,,
29/05/2009 12:10,8902,13567,6173,83,198,397,0,10,103,3736,7.08,,,
29/05/2009 12:10,8937,13616,6170,83,197,395,0,10,103,3736,7.565,,,
29/05/2009 12:11,8929,13619,6173,83,201,393,0,10,102,3736,7.805,,,
29/05/2009 12:11,8914,13573,6177,83,199,394,0,10,101,3736,6.655,,,
29/05/2009 12:11,8899,13594,6160,83,202,393,0,10,101,3736,6.742,,,
29/05/2009 12:11,8892,13522,6127,83,198,395,0,10,103,3736,6.742,,,
29/05/2009 12:11,8862,13524,6129,83,193,396,0,10,102,3736,7.567,,,
29/05/2009 12:11,8784,13428,6053,83,193,394,0,10,102,3736,8.199,,,
29/05/2009 12:12,8752,13407,6045,83,197,394,0,10,103,3736,8.199,,,
29/05/2009 12:12,8657,13229,6006,83,194,397,0,10,104,3736,8.113,,,
29/05/2009 12:12,8543,13036,5943,83,192,398,0,10,105,3736,7.238,,,
29/05/2009 12:12,8569,13093,5964,83,192,398,0,10,103,3736,7.836,,,
29/05/2009 12:12,8716,13214,6033,83,193,397,0,10,104,3736,7.217,,,
29/05/2009 12:12,8837,13395,6122,83,197,395,0,10,104,3736,7.217,,,
29/05/2009 12:13,9095,13807,6287,83,207,398,0,10,103,3739,7.192,,,
29/05/2009 12:13,9311,14036,6449,83,211,397,0,10,102,3739,6.708,,,
29/05/2009 12:13,9417,14213,6502,83,208,397,0,10,101,3739,5.996,,,
29/05/2009 12:13,9503,14392,6562,84,201,397,0,10,102,3739,6.016,,,
29/05/2009 12:13,9633,14560,6636,84,200,407,0,10,103,3739,6.295,,,
29/05/2009 12:13,9633,14601,6602,84,201,398,0,10,101,3739,6.64,,,
29/05/2009 12:14,9563,14538,6569,84,200,397,0,10,102,3739,6.645,,,
29/05/2009 12:14,9568,14579,6582,84,200,399,0,10,102,3739,6.507,,,
29/05/2009 12:14,9534,14540,6538,84,199,395,0,10,103,3739,6.856,,,
29/05/2009 12:14,9452,14381,6498,84,197,398,0,10,102,3739,6.856,,,
29/05/2009 12:14,9471,14477,6484,84,192,397,0,10,103,3739,6.583,,,
29/05/2009 12:14,9308,14271,6348,84,193,394,0,10,102,3739,7.687,,,
29/05/2009 12:15,9231,14161,6348,84,181,399,0,10,100,3739,7.5,,,
29/05/2009 12:15,9118,13982,6260,84,203,396,0,10,101,3739,6.503,,,
29/05/2009 12:15,9078,13933,6235,84,198,395,0,10,103,3739,7.099,,,
29/05/2009 12:15,9019,13793,6177,85,199,399,0,10,103,3741,8.535,,,
29/05/2009 12:15,8962,13750,6139,85,200,395,0,10,103,3741,6.52,,,
29/05/2009 12:15,8912,13649,6106,85,196,395,0,10,103,3741,8.022,,,
29/05/2009 12:16,8869,13538,6070,85,195,394,0,10,104,3741,7.06,,,
29/05/2009 12:16,8792,13482,6030,85,193,397,0,10,103,3741,7.003,,,
29/05/2009 12:16,8731,13379,5995,85,195,393,0,10,102,3741,7.263,,,
29/05/2009 12:16,8717,13339,6010,85,195,398,0,10,101,3741,7.326,,,
29/05/2009 12:16,8821,13490,6049,85,197,395,0,10,98,3741,8.707,,,
29/05/2009 12:16,8773,13422,6023,86,202,392,0,10,101,3741,7.082,,,
29/05/2009 12:17,8807,13450,6067,86,204,393,0,10,98,3741,7.069,,,
29/05/2009 12:17,8787,13351,6051,86,200,395,0,10,101,3741,6.588,,,
29/05/2009 12:17,8764,13333,6050,86,201,397,0,10,100,3741,7.535,,,
29/05/2009 12:17,8900,13563,6138,86,201,400,0,10,101,3741,6.809,,,
29/05/2009 12:17,9085,13832,6267,86,203,398,0,10,103,3741,8.658,,,
29/05/2009 12:17,9040,13753,6255,86,202,401,0,10,103,3741,7.838,,,
29/05/2009 12:18,9039,13751,6249,86,199,399,0,10,103,3741,8.211,,,
29/05/2009 12:18,8995,13660,6200,86,196,395,0,10,103,3741,7.302,,,
29/05/2009 12:18,8826,13457,6087,86,194,397,0,10,103,3741,7.425,,,
29/05/2009 12:18,8732,13394,6032,86,192,399,0,10,102,3741,9.187,,,
29/05/2009 12:18,8803,13412,6060,86,187,398,0,10,102,3741,7.638,,,
29/05/2009 12:18,8837,13417,6088,86,184,399,0,10,101,3741,8.295,,,
29/05/2009 12:19,8631,13287,5963,87,184,399,0,10,102,3741,8.181,,,
29/05/2009 12:19,8629,13200,5949,87,181,397,0,10,102,3741,6.543,,,
29/05/2009 12:19,8587,13172,5912,87,183,399,0,10,103,3741,7.5,,,
29/05/2009 12:19,8479,12979,5850,87,183,398,0,10,102,3744,8.989,,,
29/05/2009 12:19,8546,13137,5882,86,185,400,0,10,102,3744,7.863,,,
29/05/2009 12:19,8467,12999,5838,86,188,397,0,10,101,3744,7.863,,,
29/05/2009 12:20,8463,12949,5827,87,185,400,0,10,103,3744,7.629,,,
29/05/2009 12:20,8480,13050,5847,87,186,397,0,10,103,3744,6.833,,,
29/05/2009 12:20,8489,12940,5831,87,189,399,0,10,103,3744,7.169,,,
29/05/2009 12:20,8515,13004,5854,87,188,400,0,10,101,3744,9.351,,,
29/05/2009 12:20,8502,13015,5853,87,186,398,0,10,104,3744,8.484,,,
29/05/2009 12:20,8429,12856,5781,87,187,399,0,10,102,3744,8.484,,,
29/05/2009 12:21,8328,12805,5716,87,187,397,0,10,104,3744,8.898,,,
29/05/2009 12:21,8176,12530,5646,87,189,399,0,10,103,3744,6.708,,,
29/05/2009 12:21,8130,12358,5624,87,190,399,0,10,100,3744,6.708,,,
29/05/2009 12:21,8180,12542,5649,87,193,400,0,10,102,3744,8.241,,,
29/05/2009 12:21,8224,12547,5705,87,197,400,0,10,105,3744,8.473,,,
29/05/2009 12:21,8151,12458,5627,87,204,399,0,10,102,3744,8.093,,,
29/05/2009 12:22,8211,12483,5674,87,208,397,0,10,102,3744,7.124,,,
29/05/2009 12:22,8244,12481,5700,87,209,395,0,10,101,3744,8.384,,,
29/05/2009 12:22,8246,12533,5735,87,214,397,0,10,103,3744,7.913,,,
29/05/2009 12:22,8410,12747,5845,87,221,400,0,10,104,3744,7.42,,,
29/05/2009 12:22,8579,12971,5966,87,220,400,0,10,101,3744,8.914,,,
29/05/2009 12:22,8759,13279,6078,87,217,399,0,10,101,3744,8.914,,,
29/05/2009 12:23,8698,13261,6031,87,212,399,0,10,102,3744,9.001,,,
29/05/2009 12:23,8710,13202,6049,86,212,399,0,10,103,3746,7.108,,,
29/05/2009 12:23,8703,13227,6058,87,213,398,0,10,102,3744,7.108,,,
29/05/2009 12:23,8638,13135,6031,87,210,401,0,10,102,3746,7.067,,,
29/05/2009 12:23,8883,13493,6167,86,208,401,0,10,103,3744,7.554,,,
29/05/2009 12:23,9052,13676,6252,86,208,400,0,10,104,3744,8.692,,,
29/05/2009 12:24,8914,13607,6198,86,206,401,0,10,100,3746,7.512,,,
29/05/2009 12:24,9021,13727,6244,86,200,400,0,10,102,3744,7.711,,,
29/05/2009 12:24,8918,13631,6173,86,200,398,0,10,105,3746,8.403,,,
29/05/2009 12:24,8863,13469,6161,86,198,399,0,10,102,3746,7.825,,,
29/05/2009 12:24,8946,13651,6193,87,197,402,0,10,102,3746,7.222,,,
29/05/2009 12:24,9027,13852,6245,87,197,398,0,10,101,3746,8.309,,,
29/05/2009 12:25,9083,13757,6265,87,191,400,0,10,103,3746,8.539,,,
29/05/2009 12:25,9057,13811,6288,87,188,403,0,10,99,3746,7.546,,,
29/05/2009 12:25,9049,13809,6268,87,186,399,0,10,102,3746,7.099,,,
29/05/2009 12:25,9031,13807,6223,87,183,399,0,10,100,3746,8.012,,,
29/05/2009 12:25,9119,13897,6281,87,182,402,0,10,102,3746,8.149,,,
29/05/2009 12:25,9115,13873,6280,87,183,402,0,10,102,3746,7.588,,,
29/05/2009 12:26,9119,14008,6305,87,181,402,0,10,102,3746,7.781,,,
29/05/2009 12:26,9122,13939,6314,87,184,400,0,10,102,3746,7.739,,,
29/05/2009 12:26,9081,13867,6281,87,182,399,0,10,102,3746,6.729,,,
29/05/2009 12:26,9094,13878,6299,87,183,399,0,10,102,3746,7.357,,,
29/05/2009 12:26,9172,13967,6319,87,185,401,0,10,102,3746,6.481,,,
29/05/2009 12:26,9130,13944,6285,87,188,398,0,10,100,3746,6.129,,,
29/05/2009 12:27,9105,13924,6277,87,187,402,0,10,100,3746,6.373,,,
29/05/2009 12:27,9261,14146,6379,87,182,404,0,10,101,3746,7.589,,,
29/05/2009 12:27,9148,14043,6311,87,178,399,0,10,101,3746,6.968,,,
29/05/2009 12:27,9121,14019,6293,87,175,398,0,10,102,3746,7.414,,,
29/05/2009 12:27,9177,13955,6329,87,174,403,0,10,99,3746,7.993,,,
29/05/2009 12:27,9187,14106,6309,87,173,400,0,10,100,3746,7.534,,,
29/05/2009 12:28,9083,13952,6265,87,172,401,0,10,100,3746,6.395,,,
29/05/2009 12:28,9170,14052,6294,87,173,402,0,10,100,3746,7.077,,,
29/05/2009 12:28,9128,13945,6275,87,174,401,0,10,100,3746,7.96,,,
29/05/2009 12:28,9055,13886,6204,87,173,403,0,10,99,3748,7.041,,,
29/05/2009 12:28,9046,13903,6197,87,175,399,0,10,99,3748,6.318,,,
29/05/2009 12:28,9049,13884,6192,87,178,402,0,10,102,3748,5.712,,,
29/05/2009 12:29,9019,13819,6160,87,180,401,0,10,101,3748,6.329,,,
29/05/2009 12:29,9038,13830,6186,87,182,400,0,10,101,3748,6.512,,,
29/05/2009 12:29,9093,13867,6222,87,183,401,0,10,101,3748,5.57,,,
29/05/2009 12:29,9088,13906,6210,88,182,394,0,10,101,3748,5.57,,,
29/05/2009 12:29,9197,14081,6261,88,183,399,0,10,102,3748,5.131,,,
29/05/2009 12:29,9365,14284,6391,88,178,402,0,10,99,3748,4.408,,,
29/05/2009 12:30,9602,14627,6538,88,175,398,0,10,101,3748,5.281,,,
29/05/2009 12:30,9764,14853,6686,88,173,402,0,10,103,3748,4.72,,,
29/05/2009 12:30,9900,15015,6756,88,171,402,0,10,99,3748,5.032,,,
29/05/2009 12:30,9961,15102,6798,88,168,402,0,10,102,3748,4.435,,,
29/05/2009 12:30,10105,15344,6874,88,167,402,0,10,99,3748,4.402,,,
29/05/2009 12:30,10154,15438,6902,88,165,402,0,10,100,3748,4.401,,,
29/05/2009 12:31,10205,15533,6921,88,162,402,0,10,100,3748,4.822,,,
29/05/2009 12:31,10258,15562,6960,88,162,403,0,10,100,3748,3.368,,,
29/05/2009 12:31,10202,15566,6923,88,161,403,0,10,100,3751,4.309,,,
29/05/2009 12:31,10281,15645,6958,87,158,401,0,10,102,3751,4.074,,,
29/05/2009 12:31,10365,15740,7007,87,159,401,0,10,100,3751,4.229,,,
29/05/2009 12:31,10262,15632,6932,87,156,400,0,10,101,3751,4.275,,,
29/05/2009 12:32,10271,15640,6917,86,158,400,0,10,102,3751,4.583,,,
29/05/2009 12:32,10299,15692,6961,87,157,400,0,10,104,3751,3.938,,,
29/05/2009 12:32,10203,15569,6879,87,155,401,0,10,102,3751,4.266,,,
29/05/2009 12:32,10095,15503,6789,87,154,400,0,10,104,3751,3.67,,,
29/05/2009 12:32,10182,15584,6846,87,155,401,0,10,101,3751,3.409,,,
29/05/2009 12:32,10133,15487,6794,86,152,400,0,10,102,3751,3.718,,,
29/05/2009 12:33,10061,15473,6755,87,149,398,0,10,102,3751,3.896,,,
29/05/2009 12:33,10077,15470,6761,87,147,398,0,10,103,3751,3.253,,,
29/05/2009 12:33,10041,15415,6717,87,146,400,0,10,101,3751,3.768,,,
29/05/2009 12:33,10001,15338,6718,87,145,402,0,10,101,3751,4.615,,,
29/05/2009 12:33,10100,15472,6779,87,146,401,0,10,103,3751,3.884,,,
29/05/2009 12:33,10045,15399,6715,87,144,399,0,10,102,3753,3.949,,,
29/05/2009 12:34,9952,15304,6690,87,145,405,0,10,103,3753,4.558,,,
29/05/2009 12:34,9993,15349,6681,87,143,401,0,10,102,3753,3.711,,,
29/05/2009 12:34,9914,15205,6638,87,142,398,0,10,103,3753,3.705,,,
29/05/2009 12:34,9857,15084,6607,87,141,401,0,10,102,3753,4.823,,,
29/05/2009 12:34,9835,15105,6584,87,142,401,0,10,102,3753,4.442,,,
29/05/2009 12:34,9870,15080,6612,87,141,401,0,10,104,3753,3.459,,,
29/05/2009 12:35,9816,15007,6550,87,142,400,0,10,102,3753,4.591,,,
29/05/2009 12:35,9794,14991,6589,87,143,404,0,10,103,3753,3.668,,,
29/05/2009 12:35,9752,14971,6550,87,143,401,0,10,101,3756,4.465,,,
29/05/2009 12:35,9661,14809,6511,87,144,401,0,10,102,3756,4.578,,,
29/05/2009 12:35,9611,14702,6477,87,144,403,0,10,101,3753,5.081,,,
29/05/2009 12:35,9534,14591,6420,87,145,402,0,10,100,3756,4.623,,,
29/05/2009 12:36,9441,14469,6363,87,145,403,0,10,102,3756,5.176,,,
29/05/2009 12:36,9468,14492,6384,87,147,404,0,10,102,3756,5.084,,,
29/05/2009 12:36,9309,14333,6284,87,148,401,0,10,102,3756,4.953,,,
29/05/2009 12:36,9200,14145,6214,87,149,403,0,10,103,3756,4.581,,,
29/05/2009 12:36,9175,14100,6193,87,150,400,0,10,102,3756,4.581,,,
29/05/2009 12:36,9164,14032,6221,87,150,405,0,10,105,3756,5.073,,,
29/05/2009 12:37,9093,13948,6164,87,151,401,0,10,103,3756,5.859,,,
29/05/2009 12:37,9026,13786,6111,87,149,394,0,10,102,3756,5.061,,,
29/05/2009 12:37,9021,13843,6121,87,148,403,0,10,103,3756,5.716,,,
29/05/2009 12:37,8902,13625,6038,87,149,401,0,10,103,3756,5.86,,,
29/05/2009 12:37,8998,13790,6103,87,148,400,0,10,103,3756,5.8,,,
29/05/2009 12:37,8923,13722,6051,87,150,402,0,10,103,3756,5.537,,,
29/05/2009 12:38,8672,13365,5920,87,155,401,0,10,103,3756,6.321,,,
29/05/2009 12:38,8764,13437,5979,87,151,401,0,10,103,3756,5.616,,,
29/05/2009 12:38,8745,13372,5982,87,150,403,0,10,104,3756,6.338,,,
29/05/2009 12:38,8666,13321,5917,87,150,406,0,10,103,3756,5.526,,,
29/05/2009 12:38,8822,13445,6003,87,150,404,0,10,103,3756,5.665,,,
29/05/2009 12:38,8803,13475,6008,87,147,403,0,10,101,3756,5.919,,,
29/05/2009 12:39,8734,13391,5980,87,146,404,0,10,101,3756,5.559,,,
29/05/2009 12:39,8711,13346,5943,87,147,403,0,10,102,3758,4.895,,,
29/05/2009 12:39,8799,13427,6015,87,146,405,0,10,102,3758,4.783,,,
29/05/2009 12:39,8772,13368,6000,88,146,413,0,10,103,3758,4.815,,,
29/05/2009 12:39,8726,13349,5989,88,145,411,0,10,103,3758,5.274,,,
29/05/2009 12:39,8751,13387,5995,88,143,424,0,10,104,3758,5.421,,,
29/05/2009 12:40,8698,13285,5974,88,144,403,0,10,103,3758,6.244,,,
29/05/2009 12:40,8676,13219,5967,88,145,405,0,10,103,3758,5.438,,,
29/05/2009 12:40,8584,13149,5881,88,144,397,0,10,102,3758,5.155,,,
29/05/2009 12:40,8544,13097,5846,88,145,403,0,10,102,3758,5.155,,,
29/05/2009 12:40,8585,13140,5868,88,146,407,0,10,102,3758,5.838,,,
29/05/2009 12:40,8539,13093,5835,88,145,407,0,10,103,3758,6.853,,,
29/05/2009 12:41,8430,12922,5756,88,149,402,0,10,105,3758,5.432,,,
29/05/2009 12:41,8427,12918,5759,88,147,405,0,10,104,3758,6.248,,,
29/05/2009 12:41,8368,12876,5726,88,148,407,0,10,102,3758,6.909,,,
29/05/2009 12:41,8353,12788,5736,88,151,408,0,10,103,3758,8.223,,,
29/05/2009 12:41,8459,12956,5800,88,154,407,0,10,102,3758,5.755,,,
29/05/2009 12:41,8454,13051,5710,88,154,404,0,10,103,3758,6.791,,,
29/05/2009 12:42,8189,12568,5632,88,155,405,0,10,102,3758,7.835,,,
29/05/2009 12:42,8225,12642,5665,88,159,403,0,10,103,3758,5.865,,,
29/05/2009 12:42,8182,12656,5622,88,154,407,0,10,100,3758,5.37,,,
29/05/2009 12:42,8111,12479,5591,88,157,405,0,10,101,3758,5.966,,,
29/05/2009 12:42,8214,12598,5660,88,161,406,0,10,102,3760,6.156,,,
29/05/2009 12:42,8137,12601,5611,88,157,405,0,10,102,3760,6.643,,,
29/05/2009 12:43,8026,12372,5540,88,160,406,0,10,105,3760,6.698,,,
29/05/2009 12:43,8123,12514,5614,88,157,405,0,10,101,3760,6.961,,,
29/05/2009 12:43,8156,12545,5645,88,152,404,0,10,100,3760,5.04,,,
29/05/2009 12:43,8114,12535,5580,88,151,405,0,10,102,3760,5.04,,,
29/05/2009 12:43,8109,12467,5616,88,148,407,0,10,105,3760,5.991,,,
29/05/2009 12:43,8280,12660,5717,88,144,404,0,10,102,3760,5.526,,,
29/05/2009 12:44,8293,12793,5733,88,148,406,0,10,103,3760,6.306,,,
29/05/2009 12:44,8212,12642,5718,88,146,405,0,10,103,3760,6.186,,,
29/05/2009 12:44,8385,12844,5820,88,145,409,0,10,104,3763,6.079,,,
29/05/2009 12:44,8318,12775,5731,88,147,405,0,10,103,3760,7.184,,,
29/05/2009 12:44,8207,12611,5680,88,144,408,0,10,104,3760,6.91,,,
29/05/2009 12:44,8222,12673,5683,88,142,407,0,10,101,3760,7.464,,,
29/05/2009 12:45,8224,12599,5690,88,144,406,0,10,102,3763,6.927,,,
29/05/2009 12:45,8199,12650,5659,88,144,409,0,10,101,3763,6.65,,,
29/05/2009 12:45,8131,12554,5619,88,145,407,0,10,101,3763,6.895,,,
29/05/2009 12:45,8083,12451,5587,88,148,410,0,10,103,3763,6.895,,,
29/05/2009 12:45,8143,12537,5623,88,149,409,0,10,102,3763,7.9,,,
29/05/2009 12:45,8071,12429,5591,88,147,407,0,10,101,3763,7.973,,,
29/05/2009 12:46,8039,12423,5568,88,148,408,0,10,102,3763,79.298,,,
29/05/2009 12:46,8045,12485,5582,88,150,407,0,10,104,3763,98.675,,,
29/05/2009 12:46,8000,12315,5534,88,150,408,0,10,103,3763,120.583,,,
29/05/2009 12:46,12606,15490,8230,88,151,408,0,10,104,3763,195.544,,,
29/05/2009 12:46,21325,22424,21075,88,149,408,0,10,104,3763,183.233,,,
29/05/2009 12:46,21167,21241,21041,88,146,409,0,10,103,3763,185.304,,,
29/05/2009 12:47,21073,21398,20054,88,148,408,0,10,103,3763,186.793,,,
29/05/2009 12:47,8210,12411,5680,88,148,407,0,10,101,3763,105.178,,,
29/05/2009 12:47,17022,18589,5881,88,146,408,0,10,101,3763,65.654,,,
29/05/2009 12:47,14794,14606,4135,88,144,411,0,10,101,3763,8.398,,,
29/05/2009 12:47,17488,14699,-3508,88,141,411,0,10,102,3763,7.87,,,
29/05/2009 12:47,8114,12223,5638,88,146,411,0,10,100,3763,6.842,,,
29/05/2009 12:48,8082,12029,5654,88,140,407,0,10,103,3763,6.842,,,
29/05/2009 12:48,8040,12123,5639,88,119,409,0,10,103,3763,6.103,,,
29/05/2009 12:48,8165,12497,5585,88,96,411,0,10,102,3763,6.645,,,
29/05/2009 12:48,8129,12535,5650,88,141,409,0,10,106,3763,6.572,,,
29/05/2009 12:48,8090,12455,5622,88,146,409,0,10,101,3763,6.481,,,
29/05/2009 12:48,8174,12546,5645,88,147,408,0,10,102,3763,6.712,,,
29/05/2009 12:49,8154,12584,5636,88,148,409,0,10,102,3763,7.463,,,
29/05/2009 12:49,8085,12517,5613,88,143,412,0,10,101,3763,6.894,,,
29/05/2009 12:49,8183,12636,5656,88,137,407,0,10,100,3763,7.493,,,
29/05/2009 12:49,8127,12569,5618,88,137,410,0,10,101,3763,7.224,,,
29/05/2009 12:49,8144,12584,5633,88,135,411,0,10,103,3763,6.425,,,
29/05/2009 12:49,8126,12531,5604,88,135,409,0,10,102,3763,6.712,,,
29/05/2009 12:50,8143,12555,5606,88,137,410,0,10,103,3763,7.421,,,
29/05/2009 12:50,8177,12652,5654,88,136,416,0,10,104,3763,7.386,,,
29/05/2009 12:50,8207,12712,5668,88,136,415,0,10,108,3763,7.466,,,
29/05/2009 12:50,8210,12702,5686,88,137,413,0,10,105,3763,7.514,,,
29/05/2009 12:50,8288,12841,5739,88,136,416,0,10,105,3763,6.591,,,
29/05/2009 12:50,8186,12692,5646,88,135,409,0,10,100,3763,6.558,,,
29/05/2009 12:51,8153,12609,5628,88,138,408,0,10,101,3760,7.508,,,
29/05/2009 12:51,8213,12707,5687,88,138,409,0,10,99,3760,6.937,,,
29/05/2009 12:51,8136,12577,5612,88,138,409,0,10,102,3763,7.176,,,
29/05/2009 12:51,8099,12505,5609,88,140,410,0,10,101,3760,6.669,,,
29/05/2009 12:51,8240,12744,5697,88,141,410,0,10,104,3760,6.296,,,
29/05/2009 12:51,8270,12797,5704,88,140,408,0,10,101,3760,6.719,,,
29/05/2009 12:52,8150,12640,5642,88,141,409,0,10,103,3763,7.51,,,
29/05/2009 12:52,8179,12703,5654,88,139,409,0,10,100,3760,6.351,,,
29/05/2009 12:52,8333,12881,5755,88,137,408,0,10,102,3760,6.927,,,
29/05/2009 12:52,8202,12651,5681,88,139,410,0,10,103,3760,7.16,,,
29/05/2009 12:52,8308,12806,5751,88,137,412,0,10,102,3760,6.873,,,
29/05/2009 12:52,8414,12974,5812,88,136,409,0,10,101,3760,6.56,,,
29/05/2009 12:53,8410,13031,5815,88,138,411,0,10,103,3760,6.953,,,
29/05/2009 12:53,8417,12974,5810,88,135,410,0,10,102,3760,6.919,,,
29/05/2009 12:53,8456,13007,5839,88,134,410,0,10,102,3760,6.949,,,
29/05/2009 12:53,8368,12983,5761,88,136,410,0,10,101,3760,7.458,,,
29/05/2009 12:53,8306,12878,5739,88,135,418,0,10,102,3760,8.184,,,
29/05/2009 12:53,8276,12867,5703,88,135,409,0,10,101,3760,7.85,,,
29/05/2009 12:54,8207,12741,5664,88,136,408,0,10,102,3760,7.85,,,
29/05/2009 12:54,8076,12580,5604,88,133,411,0,10,100,3760,7.793,,,
29/05/2009 12:54,8055,12526,5550,88,131,408,0,10,103,3760,7.793,,,
29/05/2009 12:54,8033,12391,5574,88,134,418,0,10,101,3760,9.907,,,
29/05/2009 12:54,7948,12346,5520,88,134,409,0,10,103,3760,6.877,,,
29/05/2009 12:54,7833,12250,5413,88,136,408,0,10,103,3758,8.159,,,
29/05/2009 12:55,7769,12182,5353,88,138,406,0,10,101,3758,7.196,,,
29/05/2009 12:55,7830,12247,5406,88,136,410,0,10,102,3758,6.86,,,
29/05/2009 12:55,7724,12047,5329,88,138,410,0,10,103,3758,6.636,,,
29/05/2009 12:55,7729,12093,5346,88,139,414,0,10,101,3758,6.636,,,
29/05/2009 12:55,7710,12094,5317,88,137,413,0,10,100,3758,6.374,,,
29/05/2009 12:55,7769,12118,5366,88,137,413,0,10,98,3758,7.087,,,
29/05/2009 12:56,7715,12031,5348,88,138,410,0,10,98,3758,6.225,,,
29/05/2009 12:56,7784,12151,5410,88,138,411,0,10,98,3758,6.601,,,
29/05/2009 12:56,7761,12150,5382,88,136,406,0,10,102,3758,7.442,,,
29/05/2009 12:56,7591,11871,5269,88,136,411,0,10,101,3760,7.471,,,
29/05/2009 12:56,7624,11904,5321,88,134,414,0,10,105,3758,6.066,,,
29/05/2009 12:56,7620,11915,5290,88,135,409,0,10,101,3758,7.143,,,
29/05/2009 12:57,7377,11513,5149,88,138,408,0,10,101,3758,6.895,,,
29/05/2009 12:57,7472,11602,5224,88,140,418,0,10,99,3758,6.895,,,
29/05/2009 12:57,7609,11757,5328,88,142,412,0,10,101,3758,5.514,,,
29/05/2009 12:57,7767,11989,5445,88,146,410,0,10,100,3758,5.549,,,
29/05/2009 12:57,8148,12433,5718,88,145,426,0,10,101,3756,5.872,,,
29/05/2009 12:57,8620,13076,6016,88,143,410,0,10,100,3756,5.516,,,
29/05/2009 12:58,8770,13396,6098,88,138,406,0,10,101,3756,4.813,,,
29/05/2009 12:58,8981,13714,6242,88,134,405,0,10,102,3756,4.604,,,
29/05/2009 12:58,9217,14014,6404,87,129,410,0,10,103,3756,4.409,,,
29/05/2009 12:58,9355,14256,6477,86,126,411,0,10,102,3756,4.533,,,
29/05/2009 12:58,9180,14118,6322,86,125,412,0,10,102,3756,4.657,,,
29/05/2009 12:58,9118,14069,6242,86,122,413,0,10,103,3756,4.791,,,
29/05/2009 12:59,9074,14029,6207,86,122,426,0,10,103,3756,3.989,,,
29/05/2009 12:59,8994,13879,6160,86,122,423,0,10,102,3753,3.02,,,
29/05/2009 12:59,8970,13831,6158,87,121,420,0,10,103,3753,4.316,,,
29/05/2009 12:59,8912,13782,6116,87,120,414,0,10,104,3753,4.715,,,
29/05/2009 12:59,9078,13963,6226,87,119,423,0,10,101,3753,4.858,,,
29/05/2009 12:59,8917,13810,6090,87,119,416,0,10,102,3753,5.151,,,
29/05/2009 13:00,8785,13614,5990,87,119,416,0,10,105,3753,4.144,,,
29/05/2009 13:00,8750,13612,5960,87,119,416,0,10,101,3753,3.807,,,
29/05/2009 13:00,8673,13482,5930,87,120,419,0,10,104,3753,3.97,,,
29/05/2009 13:00,8571,13424,5845,87,121,416,0,10,103,3753,4.76,,,
29/05/2009 13:00,8599,13428,5850,87,121,415,0,10,104,3753,4.585,,,
29/05/2009 13:00,8667,13513,5884,87,121,418,0,10,105,3753,4.556,,,
29/05/2009 13:01,8454,13239,5741,87,121,417,0,10,102,3753,4.525,,,
29/05/2009 13:01,8486,13257,5795,87,119,420,0,10,103,3753,4.666,,,
29/05/2009 13:01,8474,13202,5770,87,119,416,0,10,103,3753,4.996,,,
29/05/2009 13:01,8336,13054,5675,87,119,418,0,10,101,3753,3.922,,,
29/05/2009 13:01,8413,13094,5731,87,119,422,0,10,105,3751,4.375,,,
29/05/2009 13:01,8399,13082,5707,87,119,419,0,10,102,3751,4.375,,,
29/05/2009 13:02,8258,12900,5622,87,120,420,0,10,102,3751,5.171,,,
29/05/2009 13:02,8262,12899,5642,87,120,421,0,10,102,3751,4.677,,,
29/05/2009 13:02,8270,12933,5635,87,121,423,0,10,104,3751,3.717,,,
29/05/2009 13:02,8172,12802,5579,87,122,422,0,10,100,3751,3.776,,,
29/05/2009 13:02,8201,12800,5612,87,122,424,0,10,102,3751,4.526,,,
29/05/2009 13:02,8224,12831,5618,87,122,423,0,10,104,3751,4.538,,,
29/05/2009 13:03,8195,12787,5585,87,121,423,0,10,101,3751,5.286,,,
29/05/2009 13:03,8129,12720,5565,87,121,420,0,10,103,3751,4.483,,,
29/05/2009 13:03,8011,12567,5477,87,120,423,0,10,102,3751,4.483,,,
29/05/2009 13:03,7976,12497,5456,87,121,422,0,10,101,3751,5.312,,,
29/05/2009 13:03,7926,12417,5438,87,122,424,0,10,102,3751,4.09,,,
29/05/2009 13:03,7878,12321,5392,88,123,424,0,10,103,3751,5.325,,,
29/05/2009 13:04,7839,12281,5360,88,126,424,0,10,101,3751,5.695,,,
29/05/2009 13:04,7792,12191,5338,88,126,423,0,10,101,3751,3.806,,,
29/05/2009 13:04,7762,12143,5325,88,127,425,0,10,102,3748,4.627,,,
29/05/2009 13:04,7759,12108,5321,88,125,423,0,10,99,3748,4.267,,,
29/05/2009 13:04,7806,12209,5333,88,124,427,0,10,99,3748,4.788,,,
29/05/2009 13:04,7808,12221,5353,88,124,423,0,10,101,3748,5.019,,,
29/05/2009 13:05,7776,12148,5327,88,125,425,0,10,100,3748,4.42,,,
29/05/2009 13:05,7863,12209,5394,88,125,425,0,10,101,3748,4.42,,,
29/05/2009 13:05,7822,12210,5368,88,126,428,0,10,100,3748,4.028,,,
29/05/2009 13:05,7773,12144,5323,88,126,428,0,10,100,3748,4.371,,,
29/05/2009 13:05,7871,12263,5406,88,126,430,0,10,99,3748,4.371,,,
29/05/2009 13:05,7863,12258,5394,88,127,426,0,10,102,3748,3.539,,,
29/05/2009 13:06,7840,12202,5388,88,128,431,0,10,99,3748,4.705,,,
29/05/2009 13:06,7913,12303,5452,88,129,424,0,10,99,3746,4.269,,,
29/05/2009 13:06,7927,12295,5427,88,129,423,0,10,101,3746,3.153,,,
29/05/2009 13:06,7807,12173,5392,88,127,428,0,10,100,3746,5.028,,,
29/05/2009 13:06,7939,12364,5459,88,128,425,0,10,99,3746,5.084,,,
29/05/2009 13:06,8024,12407,5527,88,126,422,0,10,101,3746,5.622,,,
29/05/2009 13:07,7884,12265,5462,88,127,431,0,10,102,3746,5.54,,,
29/05/2009 13:07,7890,12266,5453,88,126,422,0,10,99,3746,5.169,,,
29/05/2009 13:07,7797,12182,5364,88,124,423,0,10,99,3746,4.92,,,
29/05/2009 13:07,7717,12063,5318,88,125,425,0,10,101,3746,4.41,,,
29/05/2009 13:07,7790,12150,5348,88,126,424,0,10,101,3744,4.209,,,
29/05/2009 13:07,7710,12104,5302,88,126,423,0,10,101,3744,4.09,,,
29/05/2009 13:08,7672,12044,5284,88,128,423,0,10,101,3744,5.389,,,
29/05/2009 13:08,7646,11998,5286,88,126,427,0,10,100,3744,4.164,,,
29/05/2009 13:08,7660,12015,5279,88,126,426,0,10,101,3744,4.121,,,
29/05/2009 13:08,7634,12000,5273,88,126,422,0,10,99,3744,4.685,,,
29/05/2009 13:08,7624,11976,5279,88,126,422,0,10,98,3744,3.977,,,
29/05/2009 13:08,7659,12036,5302,88,125,426,0,10,101,3744,4.621,,,
29/05/2009 13:09,7640,11940,5280,88,127,423,0,10,99,3744,5.464,,,
29/05/2009 13:09,7635,11930,5280,88,128,419,0,10,101,3744,5.838,,,
29/05/2009 13:09,7608,11916,5263,88,127,424,0,10,101,3744,4.915,,,
29/05/2009 13:09,7601,11895,5255,88,127,422,0,10,99,3741,4.694,,,
29/05/2009 13:09,7668,11983,5305,88,127,422,0,10,99,3741,4.387,,,
29/05/2009 13:09,7591,11913,5247,88,126,421,0,10,100,3741,4.666,,,
29/05/2009 13:10,7635,11909,5283,88,126,417,0,10,99,3741,4.905,,,
29/05/2009 13:10,7790,12145,5387,88,127,418,0,10,101,3741,3.569,,,
29/05/2009 13:10,7832,12205,5416,88,126,422,0,10,100,3741,3.569,,,
29/05/2009 13:10,7805,12239,5374,88,125,422,0,10,100,3741,4.636,,,
29/05/2009 13:10,7853,12263,5428,88,124,419,0,10,101,3741,4.636,,,
29/05/2009 13:10,7998,12420,5526,88,123,424,0,10,101,3741,6.13,,,
29/05/2009 13:11,7777,12202,5368,88,123,413,0,10,101,3741,6.18,,,
29/05/2009 13:11,7828,12231,5442,88,121,421,0,10,99,3741,5.46,,,
29/05/2009 13:11,7785,12186,5407,88,121,416,0,10,100,3741,4.975,,,
29/05/2009 13:11,7644,12016,5327,88,120,417,0,10,99,3739,5.468,,,
29/05/2009 13:11,7792,12171,5420,88,120,415,0,10,100,3741,6.732,,,
29/05/2009 13:11,7918,12372,5482,88,122,424,0,10,102,3739,4.49,,,
29/05/2009 13:12,7836,12189,5441,88,123,422,0,10,100,3739,5.455,,,
29/05/2009 13:12,7913,12386,5501,88,126,415,0,10,99,3739,5.455,,,
29/05/2009 13:12,8051,12506,5598,88,122,425,0,10,100,3739,8.051,,,
29/05/2009 13:12,7944,12395,5516,88,120,414,0,10,102,3739,5.002,,,
29/05/2009 13:12,8008,12522,5573,88,120,434,0,10,99,3739,4.761,,,
29/05/2009 13:12,7908,12349,5477,88,114,403,0,10,99,3739,7.212,,,
29/05/2009 13:13,7915,12436,5307,88,115,414,0,10,100,3739,7.145,,,
29/05/2009 13:13,7852,12328,5470,88,116,418,0,10,102,3736,5.261,,,
29/05/2009 13:13,7753,12227,5401,88,115,416,0,10,100,3739,6.305,,,
29/05/2009 13:13,7762,12166,5389,88,119,414,0,10,99,3736,6.076,,,
29/05/2009 13:13,7815,12253,5430,88,119,415,0,10,99,3736,5.262,,,
29/05/2009 13:13,7823,12263,5442,88,118,416,0,10,99,3736,6.069,,,
29/05/2009 13:14,7844,12273,5438,88,121,416,0,10,100,3736,7.051,,,
29/05/2009 13:14,7907,12355,5487,88,120,414,0,10,101,3736,6.14,,,
29/05/2009 13:14,7917,12359,5512,88,116,415,0,10,100,3736,7.039,,,
29/05/2009 13:14,7911,12311,5501,88,116,415,0,10,101,3736,5.928,,,
29/05/2009 13:14,7952,12375,5530,88,116,415,0,10,101,3736,6.077,,,
29/05/2009 13:14,7822,12282,5445,88,114,413,0,10,99,3736,7.458,,,
29/05/2009 13:15,7708,12095,5364,86,117,416,0,10,99,3736,5.833,,,
29/05/2009 13:15,7816,12172,5450,87,119,415,0,10,102,3736,8.159,,,
29/05/2009 13:15,7739,12073,5393,87,118,417,0,10,100,3734,4.994,,,
29/05/2009 13:15,7667,12034,5370,86,118,426,0,10,101,3734,4.618,,,
29/05/2009 13:15,7918,12235,5591,86,117,419,0,10,102,3734,5.06,,,
29/05/2009 13:15,8431,12898,5927,88,116,410,0,10,101,3734,3.126,,,
29/05/2009 13:16,8831,13242,6181,90,114,400,0,10,103,3734,4.711,,,
29/05/2009 13:16,9216,13557,6493,91,126,395,0,10,102,3734,2.52,,,
29/05/2009 13:16,9400,13701,6550,90,158,408,0,10,107,3732,2.895,,,
29/05/2009 13:16,9444,13935,6588,89,196,416,42,12,103,3732,2.868,,,
29/05/2009 13:16,9865,14279,6898,89,241,417,73,13,104,3732,3.646,,,
29/05/2009 13:16,10394,14684,7289,90,289,420,0,14,101,3729,4.027,,,
29/05/2009 13:17,10806,15108,7574,91,355,430,0,14,99,3729,4.089,,,
29/05/2009 13:17,10844,15200,7642,94,411,434,0,14,101,3727,5.287,,,
29/05/2009 13:17,10860,15197,7642,95,463,426,0,14,100,3727,3.102,,,
29/05/2009 13:17,11080,15558,7766,97,498,424,0,12,99,3727,2.749,,,
29/05/2009 13:17,11484,16221,8057,97,518,425,0,11,100,3727,3.604,,,
29/05/2009 13:17,11763,16823,8164,97,505,426,0,10,102,3725,2.689,,,
29/05/2009 13:18,11811,17149,8136,97,426,428,0,10,101,3725,2.496,,,
29/05/2009 13:18,11824,17250,8100,97,325,428,0,10,101,3725,2.532,,,
29/05/2009 13:18,11797,17328,8061,97,262,425,0,10,102,3725,2.654,,,
29/05/2009 13:18,11698,17266,7945,96,235,430,0,10,103,3725,3.152,,,
29/05/2009 13:18,11598,17152,7845,96,215,427,0,10,101,3725,2.859,,,
29/05/2009 13:18,11410,16996,7712,96,195,428,0,10,103,3725,3.381,,,
29/05/2009 13:19,11259,16870,7603,96,182,426,0,10,102,3725,4.177,,,
29/05/2009 13:19,11211,16759,7559,96,170,427,0,10,102,3725,3.097,,,
29/05/2009 13:19,11090,16577,7487,95,159,425,0,10,101,3725,2.193,,,
29/05/2009 13:19,11111,16623,7464,95,148,423,0,10,102,3725,3.419,,,
29/05/2009 13:19,10783,16211,7251,95,143,423,0,10,102,3725,3.419,,,
29/05/2009 13:19,10615,16019,7127,95,136,424,0,10,102,3727,3.137,,,
29/05/2009 13:20,10509,15875,7038,95,132,425,0,10,101,3725,3.858,,,
29/05/2009 13:20,10485,15841,7027,95,127,427,0,10,102,3725,4.109,,,
29/05/2009 13:20,10435,15691,7001,95,123,428,0,10,102,3727,4.09,,,
29/05/2009 13:20,10166,15342,6833,95,120,427,0,10,100,3727,3.121,,,
29/05/2009 13:20,10082,15235,6771,95,117,429,0,10,103,3727,3.739,,,
29/05/2009 13:20,9913,14982,6646,95,114,427,0,10,101,3727,3.285,,,
29/05/2009 13:21,9761,14802,6568,95,115,428,0,10,102,3727,3.285,,,
29/05/2009 13:21,9674,14657,6534,95,114,424,0,10,100,3727,4.164,,,
29/05/2009 13:21,9575,14552,6482,95,112,432,0,10,102,3727,4.751,,,
29/05/2009 13:21,9519,14401,6425,95,110,423,0,10,101,3727,5.036,,,
29/05/2009 13:21,9442,14356,6404,95,108,427,0,10,103,3727,4.089,,,
29/05/2009 13:21,9474,14311,6403,95,106,421,0,10,102,3727,4.813,,,
29/05/2009 13:22,9342,14178,6318,95,106,423,0,10,102,3727,4.816,,,
29/05/2009 13:22,9217,14023,6269,95,104,424,0,10,103,3727,4.715,,,
29/05/2009 13:22,9191,13977,6257,95,102,421,0,10,102,3727,4.615,,,
29/05/2009 13:22,9089,13800,6192,95,102,418,0,10,101,3727,4.615,,,
29/05/2009 13:22,9025,13726,6143,95,101,418,0,10,98,3727,4.35,,,
29/05/2009 13:22,9011,13668,6151,95,100,421,0,10,98,3727,4.801,,,
29/05/2009 13:23,8976,13567,6130,95,100,425,0,10,99,3727,4.822,,,
29/05/2009 13:23,8970,13598,6140,95,100,421,0,10,104,3727,5.128,,,
29/05/2009 13:23,8907,13559,6108,95,99,422,0,10,100,3729,5.286,,,
29/05/2009 13:23,8823,13435,6054,95,99,422,0,10,101,3729,4.75,,,
29/05/2009 13:23,8893,13484,6090,95,98,423,0,10,102,3729,5.554,,,
29/05/2009 13:23,8802,13362,6038,95,96,421,0,10,105,3729,6.307,,,
29/05/2009 13:24,8767,13296,6031,95,98,424,0,10,102,3729,6.444,,,
29/05/2009 13:24,8856,13401,6069,94,98,422,0,10,104,3729,4.505,,,
29/05/2009 13:24,8703,13184,5993,93,96,420,0,10,104,3729,4.577,,,
29/05/2009 13:24,8629,13127,5947,93,97,424,0,10,103,3729,4.626,,,
29/05/2009 13:24,8854,13313,6126,93,95,426,0,10,103,3729,4.094,,,
29/05/2009 13:24,8771,13162,6055,93,95,437,0,10,101,3729,4.873,,,
29/05/2009 13:25,8801,13168,6096,93,97,434,0,10,102,3729,4.66,,,
29/05/2009 13:25,8994,13358,6245,93,96,443,0,10,100,3729,4.933,,,
29/05/2009 13:25,8872,13204,6135,93,95,432,0,10,102,3729,4.652,,,
29/05/2009 13:25,8848,13140,6170,92,94,437,0,10,103,3729,4.652,,,
29/05/2009 13:25,8961,13314,6210,92,93,436,0,10,101,3729,4.454,,,
29/05/2009 13:25,9062,13427,6281,92,92,436,0,10,101,3729,4.336,,,
29/05/2009 13:26,9038,13380,6283,92,94,436,0,10,101,3729,3.402,,,
29/05/2009 13:26,9100,13557,6296,92,94,423,0,10,101,3729,3.997,,,
29/05/2009 13:26,9109,13559,6325,92,94,432,0,10,102,3729,4.234,,,
29/05/2009 13:26,8959,13425,6204,92,94,445,0,10,101,3729,4.234,,,
29/05/2009 13:26,8814,13187,6115,92,93,421,0,10,100,3729,5.483,,,
29/05/2009 13:26,8883,13381,6149,92,92,426,0,10,99,3729,4.611,,,
29/05/2009 13:27,8859,13299,6119,92,94,434,0,10,100,3729,5.098,,,
29/05/2009 13:27,8718,13116,6069,92,94,427,0,10,100,3729,4.498,,,
29/05/2009 13:27,8671,13099,6034,92,94,429,0,10,101,3729,5.302,,,
29/05/2009 13:27,8623,13040,5967,92,95,426,0,10,102,3729,5.302,,,
29/05/2009 13:27,8601,12998,5946,92,94,430,0,10,100,3729,4.967,,,
29/05/2009 13:27,8582,12991,5935,92,94,426,0,10,100,3729,5.142,,,
29/05/2009 13:28,8567,12941,5928,92,96,421,0,10,99,3729,5.142,,,
29/05/2009 13:28,8640,13051,5978,92,94,427,0,10,99,3729,3.952,,,
29/05/2009 13:28,8506,12890,5892,92,95,428,0,10,99,3729,4.671,,,
29/05/2009 13:28,8469,12858,5861,92,96,429,0,10,100,3729,4.671,,,
29/05/2009 13:28,8500,12897,5890,92,95,428,0,10,100,3729,6.043,,,
29/05/2009 13:28,8380,12706,5804,92,95,424,0,10,99,3729,5.731,,,
29/05/2009 13:29,8261,12609,5748,92,97,425,0,10,99,3729,5.753,,,
29/05/2009 13:29,8276,12624,5741,92,95,425,0,10,100,3729,5.908,,,
29/05/2009 13:29,8161,12465,5685,92,95,427,0,10,101,3729,6.751,,,
29/05/2009 13:29,8050,12322,5612,92,95,425,0,10,99,3727,6.087,,,
29/05/2009 13:29,8033,12309,5582,92,94,425,0,10,101,3727,5.196,,,
29/05/2009 13:29,7846,12004,5454,92,94,436,0,10,100,3729,6.77,,,
29/05/2009 13:30,7576,11783,5257,92,95,422,0,10,99,3727,6.832,,,
29/05/2009 13:30,7349,11322,5203,92,93,435,0,10,99,3727,6.25,,,
29/05/2009 13:30,7079,11025,5001,92,94,426,0,10,100,3727,7.425,,,
29/05/2009 13:30,6964,10803,4988,92,91,438,0,10,99,3727,5.633,,,
29/05/2009 13:30,6830,10491,4914,92,90,425,0,10,101,3727,6.397,,,
29/05/2009 13:30,6824,10473,4892,91,90,426,0,10,99,3727,7.61,,,
29/05/2009 13:31,6787,10423,4903,91,91,424,0,10,100,3727,7.885,,,
29/05/2009 13:31,6710,10250,4847,91,91,425,0,10,99,3727,7.341,,,
29/05/2009 13:31,6696,10220,4835,91,91,429,0,10,100,3727,7.054,,,
29/05/2009 13:31,6763,10224,4896,90,93,424,0,10,99,3727,9.55,,,
29/05/2009 13:31,6709,10138,4862,90,92,425,0,10,98,3727,8.916,,,
29/05/2009 13:31,6671,10085,4851,90,95,431,0,10,100,3727,11.785,,,
29/05/2009 13:32,6612,10050,4787,90,99,436,0,10,100,3727,12.351,,,
29/05/2009 13:32,6475,9799,4753,90,100,448,0,10,99,3727,8.332,,,
29/05/2009 13:32,6382,9631,4650,90,102,435,0,10,101,3725,7.396,,,
29/05/2009 13:32,6429,9700,4599,89,102,438,0,10,99,3727,6.414,,,
29/05/2009 13:32,6428,9636,4700,89,101,438,0,10,99,3727,7.22,,,
29/05/2009 13:32,6486,9705,4732,89,102,435,0,10,100,3725,6.274,,,
29/05/2009 13:33,6590,9813,4817,89,103,435,0,10,101,3725,6.274,,,
29/05/2009 13:33,6666,9943,4887,89,103,440,0,10,98,3725,15.168,,,
29/05/2009 13:33,6659,9878,4847,89,105,429,0,10,99,3725,6.065,,,
29/05/2009 13:33,6690,10035,4874,89,105,435,0,10,100,3725,5.991,,,
29/05/2009 13:33,6756,10120,4907,89,107,443,0,10,100,3725,5.557,,,
29/05/2009 13:33,6735,10090,4899,89,111,450,0,10,100,3725,7.655,,,
29/05/2009 13:34,6781,10105,4911,89,111,458,0,10,99,3723,6.695,,,
29/05/2009 13:34,6888,10191,5001,89,108,453,0,10,98,3723,5.972,,,
29/05/2009 13:34,7056,10416,5125,89,112,437,0,10,98,3723,5.789,,,
29/05/2009 13:34,7612,11117,5540,89,115,436,0,10,97,3723,5.072,,,
